usd_gain,reward,PL_ratio,PL_count_mean,hold_ratio,slope_indicator,StopLoss,enter_at,close_at,typeMA,MA_period,ATR_period,ATR_multi
-683.93,-2019946.2268,0.798,1.0,0.892,1.0,0.0009,0.091,0.005,0,18,2,1.034
-514.16,-407943.6075,2.961,0.272,2.177,1.0,0.0005,0.038,0.082,5,29,209,8.769
-536.01,-228147.2404,1.81,0.432,1.62,1.0,0.001,0.099,0.384,28,26,37,3.573
-462.14,-207383.875,5.93,0.132,3.216,1.0,0.0003,0.721,0.362,30,94,287,1.343
-520.29,-138729.3404,0.519,1.64,0.459,1.0,0.0066,0.155,0.072,19,44,490,3.487
-458.37,-131953.4434,0.545,1.493,0.683,1.0,0.002,0.123,0.057,7,127,63,2.27
-435.9,-117508.8295,2.921,0.276,2.921,1.0,0.0006,0.364,0.31,20,187,52,1.416
-418.31,-116070.9188,2.687,0.316,3.163,1.0,0.0006,0.254,0.198,22,196,32,1.311
-377.04,-91919.5664,21.244,0.037,3.233,1.0,0.0001,0.978,0.313,29,234,85,1.47
-448.79,-87337.286,0.597,1.509,0.498,1.0,0.0062,0.356,0.346,16,46,46,1.803
-426.39,-66946.86,0.39,2.333,0.303,1.0,0.0076,0.022,0.475,6,33,277,1.04
-465.25,-64630.9331,0.481,1.731,0.42,1.0,0.0128,0.666,0.007,19,55,37,1.334
-379.29,-57020.3853,0.706,1.347,0.642,1.0,0.005,0.092,0.205,19,30,90,4.222
-347.31,-49922.3917,0.48,2.016,0.387,1.0,0.0099,0.464,0.305,11,5,302,1.247
-404.99,-48864.3136,2.153,0.367,2.06,1.0,0.0011,0.184,0.913,28,66,273,1.772
-461.62,-48278.5133,0.514,1.716,0.453,1.0,0.01,0.134,0.252,8,61,378,3.085
-321.71,-44333.7155,0.456,2.062,0.492,1.0,0.0028,0.091,0.07,21,20,201,3.82
-306.69,-43162.5204,42.792,0.019,5.666,1.0,0.0001,0.009,0.463,9,185,362,7.35
-365.69,-40969.5563,3.439,0.233,3.458,1.0,0.0008,0.302,0.606,18,12,188,3.522
-377.57,-32955.7301,0.766,1.113,0.823,1.0,0.0025,0.15,0.696,11,10,323,1.851
-358.7,-32903.0695,2.369,0.336,4.732,1.0,0.0008,0.184,0.315,11,307,259,1.038
-357.98,-31971.415,0.545,1.588,0.55,1.0,0.0032,0.544,0.424,9,24,400,1.077
-309.34,-30042.9318,4.705,0.18,4.39,1.0,0.0005,0.981,0.205,5,415,483,1.155
-209.5,-28104.9819,0.695,1.438,0.527,1.0,0.0092,0.322,0.026,13,13,28,1.953
-367.1,-26525.4581,0.641,1.446,0.606,1.0,0.0035,0.134,0.536,6,20,112,2.926
-303.62,-24991.3612,17.23,0.049,6.167,1.0,0.0002,0.527,0.249,25,221,118,4.317
-373.48,-23611.4553,1.462,0.533,1.644,1.0,0.0015,0.163,0.624,8,208,424,2.072
-331.29,-22577.2642,1.711,0.476,2.302,1.0,0.0011,0.644,0.027,5,330,190,1.446
-304.53,-21655.046,2.83,0.29,4.921,1.0,0.0007,0.171,0.044,21,316,97,2.813
-261.72,-21210.4142,22.431,0.038,7.952,1.0,0.0002,0.126,0.418,13,169,246,8.742
-264.92,-18265.2478,20.117,0.044,7.392,1.0,0.0002,0.274,0.331,29,345,95,6.772
-318.18,-18205.1711,1.574,0.515,1.647,1.0,0.0012,0.759,0.495,26,42,179,1.925
-328.07,-17210.5711,5.384,0.157,6.473,1.0,0.0006,0.713,0.35,17,276,424,1.312
-318.77,-16150.0583,2.433,0.327,2.389,1.0,0.0012,0.229,0.844,1,44,440,2.513
-276.64,-15999.9105,1.74,0.494,2.397,1.0,0.0011,0.021,0.222,5,386,23,3.912
-288.8,-14429.1667,23.73,0.033,10.706,1.0,0.0002,0.832,0.816,15,416,148,2.15
-262.54,-13909.7683,9.095,0.096,7.033,1.0,0.0004,0.191,0.313,1,220,266,5.379
-319.37,-12561.381,10.876,0.077,10.848,1.0,0.0006,0.012,0.785,20,148,347,6.098
-302.62,-12079.0251,5.103,0.165,5.773,1.0,0.0007,0.322,0.98,23,284,92,1.802
-267.73,-11712.2577,0.734,1.275,0.676,1.0,0.0125,0.566,0.575,19,25,233,1.626
-291.79,-11596.7252,10.328,0.078,5.57,1.0,0.0003,0.897,0.102,16,407,479,3.596
-330.6,-11214.6048,3.39,0.226,3.65,1.0,0.001,0.15,0.269,13,322,467,6.616
-206.07,-10984.3473,21.528,0.04,7.614,1.0,0.0002,0.203,0.733,28,249,346,4.023
-261.42,-10660.2395,0.429,2.226,0.361,1.0,0.0099,0.247,0.172,29,40,263,2.541
-275.95,-10447.9398,1.314,0.652,1.91,1.0,0.0014,0.877,0.022,4,187,245,1.011
-230.36,-9687.7718,0.532,1.746,0.622,1.0,0.0028,0.457,0.396,24,190,72,1.056
-291.33,-9626.8653,1.419,0.574,1.769,1.0,0.0015,0.3,0.244,25,129,494,2.487
-257.06,-8818.2789,0.861,0.952,1.033,1.0,0.0016,0.362,0.029,7,48,298,4.13
-245.76,-8549.1709,30.23,0.029,12.907,1.0,0.0002,0.231,0.592,11,305,283,6.194
-202.24,-8195.754,12.385,0.071,7.487,1.0,0.0003,0.096,0.364,3,383,100,6.119
-214.22,-7403.7179,13.679,0.064,9.894,1.0,0.0004,0.032,0.598,23,109,345,7.092
-277.17,-6982.1431,7.039,0.121,6.699,1.0,0.0006,0.478,0.271,6,184,496,5.868
-265.49,-6905.45,0.421,2.127,0.354,1.0,0.0116,0.399,0.221,28,47,65,2.04
-250.07,-6726.3137,62.057,0.012,8.582,1.0,0.0001,0.867,0.604,15,405,9,4.033
-243.96,-5649.4313,0.532,1.661,0.517,1.0,0.0048,0.154,0.744,13,96,454,1.413
-336.59,-5337.9521,0.626,1.434,0.626,1.0,0.0101,0.096,0.454,13,48,245,4.318
-272.01,-5031.3359,6.427,0.128,7.675,1.0,0.0008,0.005,0.932,22,364,200,3.854
-239.22,-4752.1904,0.611,1.443,0.684,1.0,0.0033,0.127,0.25,2,42,178,4.652
-298.3,-4505.9931,1.026,0.757,1.3,1.0,0.0025,0.379,0.873,16,375,276,1.65
-222.64,-4351.76,3.11,0.264,3.785,1.0,0.0009,0.554,0.405,24,272,42,2.249
-233.15,-3865.2491,0.325,2.781,0.441,1.0,0.0061,0.033,0.133,19,329,307,3.353
-223.42,-3575.9327,2.57,0.323,2.669,1.0,0.0012,0.225,0.312,13,156,485,6.442
-261.52,-3485.1193,2.737,0.304,3.971,1.0,0.0012,0.876,0.085,29,419,447,2.412
-226.82,-3480.4415,0.446,2.041,0.459,1.0,0.0054,0.036,0.759,12,65,65,1.521
-205.96,-3375.9301,1.497,0.569,2.89,1.0,0.0014,0.067,0.174,4,447,466,2.841
-223.02,-3178.2006,0.58,1.57,0.637,1.0,0.0046,0.031,0.222,21,9,487,7.04
-226.37,-3023.5866,0.572,1.487,0.728,1.0,0.0035,0.089,0.657,16,326,294,1.554
-248.15,-2979.6279,26.405,0.029,16.401,1.0,0.0003,0.825,0.959,4,341,278,6.003
-215.1,-2918.8732,1.933,0.419,2.112,1.0,0.0013,0.904,0.996,13,80,41,2.113
-279.14,-2843.9258,0.486,1.762,0.415,1.0,0.0141,0.032,0.324,13,133,181,4.757
-281.54,-2816.2415,10.895,0.077,13.017,1.0,0.0006,0.763,0.395,17,317,428,7.43
-150.35,-2526.4548,7.572,0.117,7.678,1.0,0.0004,0.39,0.336,9,374,240,1.609
-246.58,-2526.3929,0.981,0.864,1.255,1.0,0.0025,0.335,0.175,12,91,232,5.064
-215.53,-2510.3755,0.736,1.175,0.819,1.0,0.003,0.514,0.279,8,67,68,3.136
-210.76,-2393.9596,0.871,0.977,1.097,1.0,0.0025,0.342,0.447,26,118,335,2.184
-261.49,-2283.7055,0.409,2.113,0.374,1.0,0.0123,0.035,0.359,16,259,397,3.574
-209.72,-2269.9205,0.281,3.242,0.289,1.0,0.0099,0.07,0.086,13,330,10,4.399
-255.72,-2260.9257,0.572,1.511,0.645,1.0,0.0078,0.91,0.832,7,41,342,1.609
-187.36,-2218.8098,17.601,0.053,14.188,1.0,0.0004,0.517,0.922,30,400,405,4.97
-236.81,-2078.953,0.518,1.733,0.633,1.0,0.005,0.218,0.823,17,76,228,1.254
-194.61,-2018.9738,1.082,0.79,1.307,1.0,0.0021,0.633,0.558,5,84,77,1.76
-208.53,-1926.0128,2.793,0.31,3.992,1.0,0.0012,0.847,0.338,26,426,187,1.802
-221.29,-1869.4405,0.356,2.501,0.408,1.0,0.0072,0.05,0.676,16,410,398,1.298
-225.62,-1825.8426,8.027,0.104,9.806,1.0,0.0008,0.181,0.982,9,284,116,4.75
-163.46,-1738.7473,0.237,4.078,0.232,1.0,0.0131,0.076,0.008,20,164,79,6.147
-157.42,-1734.4492,0.587,1.533,0.924,1.0,0.0027,0.126,0.111,5,241,200,3.289
-180.57,-1646.4337,1.589,0.542,2.178,1.0,0.0015,0.83,0.213,26,218,191,1.625
-166.56,-1452.4005,0.418,2.18,0.388,1.0,0.0133,0.197,0.005,26,47,196,6.07
-255.93,-1444.6248,10.536,0.083,14.838,1.0,0.001,0.237,1.0,20,294,52,7.717
-227.36,-1432.0834,0.497,1.69,0.475,1.0,0.0143,0.748,0.605,8,124,495,1.525
-183.42,-1421.8494,0.704,1.285,0.83,1.0,0.0034,0.579,0.842,1,48,258,1.706
-181.55,-1332.1372,5.968,0.146,6.344,1.0,0.0007,0.89,0.162,9,153,248,4.116
-214.19,-1325.8103,1.805,0.456,2.201,1.0,0.0019,0.683,0.999,17,112,477,1.723
-208.66,-1319.8417,2.879,0.282,5.325,1.0,0.0013,0.232,0.818,0,342,193,2.044
-177.78,-1289.0192,10.387,0.087,14.136,1.0,0.0008,0.079,0.804,16,219,313,7.918
-187.51,-1281.5303,1.017,0.886,1.13,1.0,0.0028,0.185,0.673,12,54,12,3.844
-217.43,-1255.6024,1.359,0.619,1.627,1.0,0.0025,0.163,0.333,16,299,116,7.911
-203.51,-1229.0302,0.394,2.356,0.32,1.0,0.0137,0.09,0.414,10,73,97,2.88
-183.98,-1223.2673,1.093,0.784,1.36,1.0,0.0023,0.84,0.736,16,160,56,2.491
-185.7,-1219.3243,0.299,3.098,0.313,1.0,0.0093,0.017,0.14,13,352,403,4.692
-194.15,-1207.0926,1.997,0.415,2.173,1.0,0.0019,0.039,0.695,7,180,25,4.705
-180.27,-1202.4436,0.937,0.891,1.338,1.0,0.0025,0.274,0.898,6,164,196,1.155
-134.5,-1196.7262,0.575,1.516,0.841,1.0,0.0027,0.086,0.153,30,154,355,2.994
-168.72,-1134.8631,1.022,0.836,1.283,1.0,0.0022,0.216,0.194,20,112,1,7.804
-197.91,-1118.3154,0.421,2.048,0.411,1.0,0.0092,0.098,0.203,19,185,307,4.435
-194.37,-1064.144,2.512,0.356,3.393,1.0,0.0015,0.642,0.343,5,340,326,3.458
-212.15,-1057.8673,5.389,0.16,8.758,1.0,0.0011,0.195,0.845,0,319,325,3.934
-222.83,-953.626,4.013,0.209,5.687,1.0,0.0013,0.768,0.424,9,221,114,4.553
-209.98,-890.3227,4.539,0.174,6.356,1.0,0.0013,0.327,0.474,4,62,202,8.761
-204.98,-872.9688,0.387,2.236,0.447,1.0,0.0086,0.519,0.089,16,385,275,2.473
-165.62,-871.2364,1.542,0.552,2.013,1.0,0.0019,0.143,0.162,5,158,103,8.784
-127.0,-857.0644,0.34,2.819,0.356,1.0,0.0063,0.21,0.104,5,64,44,2.943
-167.94,-841.6241,1.062,0.804,1.578,1.0,0.0023,0.47,0.324,10,182,78,2.505
-192.25,-836.0626,5.202,0.165,7.253,1.0,0.0011,0.404,0.857,23,403,54,3.874
-202.92,-834.545,0.399,2.18,0.365,1.0,0.0126,0.62,0.015,8,248,115,2.524
-112.65,-795.4695,9.755,0.086,3.26,1.0,0.0002,0.884,0.519,8,52,273,1.717
-154.76,-781.9391,1.114,0.766,2.107,1.0,0.0021,0.037,0.439,12,395,387,2.088
-189.14,-754.0959,9.085,0.095,13.262,1.0,0.0009,0.099,0.835,9,309,330,7.753
-185.41,-751.0541,2.133,0.396,2.464,1.0,0.002,0.298,0.861,22,110,137,3.904
-147.8,-695.4794,0.28,3.386,0.27,1.0,0.0137,0.131,0.156,3,153,287,3.152
-130.04,-695.4009,10.201,0.088,7.482,1.0,0.0004,0.765,0.112,23,185,309,5.135
-144.61,-694.4561,0.454,2.07,0.476,1.0,0.0087,0.329,0.134,14,18,402,3.916
-132.18,-646.678,0.509,1.757,0.588,1.0,0.0052,0.68,0.399,26,39,385,1.855
-157.24,-645.3065,1.069,0.812,1.415,1.0,0.0027,0.241,0.313,19,96,206,7.401
-228.55,-642.4704,0.403,2.1,0.372,1.0,0.014,0.126,0.169,19,326,94,6.109
-184.41,-641.2599,1.96,0.423,3.262,1.0,0.0018,0.273,0.064,10,367,224,7.871
-139.35,-619.0185,0.58,1.38,2.045,1.0,0.0029,0.036,0.3,11,408,430,1.234
-138.4,-610.4308,0.36,2.55,0.341,1.0,0.0107,0.15,0.123,2,64,229,4.719
-170.11,-585.7795,0.513,1.709,0.535,1.0,0.0097,0.551,0.382,7,74,97,2.81
-190.57,-583.0085,2.242,0.369,2.878,1.0,0.0023,0.176,0.969,25,87,426,3.987
-178.85,-561.6025,0.566,1.5,0.711,1.0,0.0051,0.143,0.245,19,317,288,4.504
-187.4,-560.4865,1.664,0.507,2.29,1.0,0.0023,0.557,0.522,18,219,481,2.825
-143.68,-560.3946,4.317,0.192,4.892,1.0,0.0012,0.019,0.806,10,143,210,4.957
-134.58,-539.5135,0.63,1.369,0.841,1.0,0.0032,0.846,0.116,4,83,320,1.794
-130.91,-521.8581,17.682,0.053,15.264,1.0,0.0004,0.798,0.699,15,175,441,5.132
-154.87,-514.6302,1.747,0.482,2.45,1.0,0.0019,0.117,0.734,30,370,58,2.752
-140.42,-501.4946,0.194,5.034,0.228,1.0,0.0145,0.166,0.22,30,396,354,1.193
-197.18,-501.2927,0.458,1.878,0.444,1.0,0.0133,0.368,0.063,8,218,99,5.313
-165.96,-491.7864,7.022,0.127,10.676,1.0,0.001,0.567,0.816,1,288,174,5.915
-146.33,-483.2721,1.013,0.829,1.357,1.0,0.0026,0.64,0.871,1,121,41,1.59
-192.15,-470.7212,0.422,2.127,0.453,1.0,0.0109,0.53,0.375,17,80,342,2.169
-157.86,-447.6307,2.387,0.359,3.326,1.0,0.0017,0.468,0.493,26,305,463,3.366
-189.41,-403.0914,0.65,1.32,0.75,1.0,0.0127,0.585,0.453,19,46,227,4.027
-200.24,-384.1503,4.139,0.205,7.208,1.0,0.0018,0.507,0.854,12,247,423,6.17
-163.87,-373.4405,1.825,0.466,2.935,1.0,0.0021,0.336,0.168,2,249,246,6.894
-173.65,-365.1344,3.311,0.261,5.011,1.0,0.0016,0.645,0.473,1,234,271,5.257
-142.51,-347.4345,3.139,0.286,4.498,1.0,0.0014,0.874,0.537,3,411,396,2.595
-155.18,-311.6397,0.346,2.581,0.335,1.0,0.0149,0.74,0.015,13,322,217,1.882
-116.22,-310.8728,0.513,1.724,0.556,1.0,0.0068,0.605,0.12,16,155,237,2.491
-176.33,-309.568,0.48,1.785,0.48,1.0,0.012,0.136,0.386,13,216,387,4.749
-166.59,-293.3352,0.89,0.982,1.285,1.0,0.0052,0.097,0.417,24,95,307,4.241
-116.31,-284.2667,0.5,1.786,0.586,1.0,0.0083,0.44,0.239,17,8,257,4.977
-103.03,-259.8965,0.342,2.689,0.616,1.0,0.0052,0.366,0.009,29,363,108,1.995
-151.98,-249.6476,0.673,1.379,0.837,1.0,0.0113,0.365,0.338,13,8,477,2.725
-147.06,-248.335,0.468,2.054,0.473,1.0,0.0138,0.453,0.355,18,77,321,3.128
-88.07,-239.8632,0.576,1.489,1.62,1.0,0.0027,0.047,0.001,11,281,125,8.28
-121.18,-234.4896,0.362,2.564,0.354,1.0,0.0121,0.205,0.13,18,102,87,3.922
-106.63,-231.7253,2.231,0.395,3.742,1.0,0.0014,0.192,0.072,0,230,250,7.219
-118.18,-225.9057,6.199,0.145,8.373,1.0,0.0009,0.992,0.79,7,411,244,3.522
-119.84,-216.2962,0.402,2.305,0.401,1.0,0.0109,0.303,0.369,6,90,393,2.172
-172.5,-201.8357,2.41,0.345,3.181,1.0,0.0024,0.444,0.593,19,431,399,7.071
-116.51,-196.6469,1.104,0.767,1.526,1.0,0.0027,0.246,0.583,17,125,295,2.218
-114.39,-177.1825,2.112,0.386,2.822,1.0,0.0016,0.344,0.072,13,373,493,7.937
-108.09,-171.9931,2.746,0.333,3.768,1.0,0.0015,0.327,0.824,26,444,428,2.265
-113.38,-169.0238,15.717,0.054,8.622,1.0,0.0003,0.832,0.193,13,390,113,6.74
-139.19,-166.4447,1.713,0.482,2.76,1.0,0.0025,0.056,0.425,10,447,467,5.652
-119.91,-163.4682,0.42,2.328,0.444,1.0,0.0126,0.362,0.199,3,98,240,4.085
-136.67,-154.7162,2.68,0.33,4.463,1.0,0.002,0.851,0.69,5,432,470,3.719
-111.81,-147.0953,3.376,0.258,4.731,1.0,0.0015,0.102,0.663,15,194,200,4.814
-138.13,-141.3043,8.587,0.103,15.933,1.0,0.001,0.826,0.672,4,342,280,7.894
-157.86,-139.8759,3.967,0.218,7.257,1.0,0.0021,0.362,0.792,28,310,309,7.53
-116.71,-138.871,0.389,2.303,0.445,1.0,0.0088,0.708,0.278,13,342,352,1.595
-179.72,-137.2003,2.684,0.308,4.449,1.0,0.003,0.006,0.848,25,271,495,7.335
-101.71,-130.5575,0.357,2.634,0.334,1.0,0.0128,0.208,0.52,3,130,203,2.121
-124.32,-127.7082,2.499,0.34,4.123,1.0,0.0019,0.921,0.662,14,161,199,3.046
-198.2,-126.8643,0.507,1.68,0.526,1.0,0.0144,0.518,0.622,19,428,211,3.233
-96.7,-122.7643,0.276,3.53,0.284,1.0,0.014,0.179,0.319,1,153,419,1.938
-104.98,-117.1864,0.281,3.522,0.318,1.0,0.012,0.318,0.466,27,193,240,1.472
-180.0,-116.8278,0.71,1.208,1.062,1.0,0.0079,0.641,0.806,8,138,494,4.389
-203.57,-116.2244,0.51,1.724,0.523,1.0,0.0144,0.113,0.484,0,29,257,7.379
-122.59,-116.0883,0.954,0.932,1.564,1.0,0.0036,0.139,0.488,17,204,138,3.738
-125.33,-113.9591,5.309,0.168,9.976,1.0,0.0013,0.768,0.44,25,419,377,6.372
-108.08,-111.2916,1.076,0.826,1.743,1.0,0.0028,0.962,0.082,5,380,424,2.536
-110.17,-109.4446,0.468,2.034,0.422,1.0,0.0143,0.123,0.299,20,74,99,6.245
-94.83,-107.9128,0.821,1.011,1.956,1.0,0.0029,0.097,0.165,21,313,298,4.141
-74.57,-106.3433,0.428,2.147,0.451,1.0,0.0068,0.237,0.143,0,23,181,4.231
-67.59,-96.6471,0.234,4.355,0.234,1.0,0.0128,0.077,0.303,20,215,183,1.485
-123.74,-96.3226,2.143,0.404,3.505,1.0,0.0031,0.157,0.675,28,39,348,6.115
-98.35,-92.5969,1.545,0.567,1.791,1.0,0.0027,0.07,0.772,25,82,35,4.815
-77.41,-92.5814,16.578,0.057,14.419,1.0,0.0004,0.838,0.548,10,270,415,5.915
-91.11,-92.427,1.738,0.511,3.461,1.0,0.0019,0.221,0.532,9,375,233,2.089
-93.49,-91.7321,8.414,0.109,11.593,1.0,0.0008,0.677,0.554,6,221,352,7.536
-87.84,-87.6218,0.259,4.019,0.284,1.0,0.0132,0.931,0.067,28,306,8,1.151
-119.52,-85.3265,6.477,0.138,12.003,1.0,0.0014,0.547,0.835,1,247,296,7.72
-94.62,-84.5373,0.234,4.16,0.385,1.0,0.0106,0.145,0.034,26,449,25,6.091
-117.17,-84.3811,0.452,1.995,0.567,1.0,0.0149,0.954,0.085,26,45,346,2.779
-155.45,-81.7853,2.404,0.347,4.57,1.0,0.0031,0.479,0.903,3,351,322,5.87
-115.69,-81.1166,0.492,1.765,0.567,1.0,0.0091,0.658,0.198,16,363,272,3.033
-79.58,-80.7563,15.788,0.06,21.425,1.0,0.0006,0.439,0.778,30,155,396,8.374
-79.88,-76.9237,0.854,1.07,1.398,1.0,0.0029,0.599,0.412,6,237,53,1.56
-111.71,-70.825,0.396,2.346,0.514,1.0,0.0088,0.68,0.211,7,394,253,2.383
-83.63,-69.5903,0.277,3.488,0.432,1.0,0.0088,0.644,0.107,18,298,283,1.048
-99.81,-69.0878,0.379,2.455,0.536,1.0,0.0078,0.579,0.318,20,316,299,1.917
-96.8,-67.8527,0.776,1.108,0.901,1.0,0.0043,0.163,0.382,16,410,228,5.078
-139.88,-64.2771,0.586,1.612,0.874,1.0,0.0091,0.639,0.979,30,48,211,3.476
-126.59,-62.8777,1.888,0.465,3.35,1.0,0.0029,0.364,0.617,17,355,173,4.367
-104.97,-62.1449,1.765,0.483,2.884,1.0,0.0035,0.121,0.906,30,27,426,4.244
-74.7,-58.7691,0.529,1.77,0.671,1.0,0.0061,0.896,0.753,20,32,314,1.843
-93.47,-50.5304,0.36,2.408,0.761,1.0,0.0072,0.122,0.145,14,266,453,5.412
-85.95,-49.8554,13.69,0.065,14.176,1.0,0.0005,0.87,0.941,8,189,116,4.827
-125.85,-45.6053,0.752,1.189,1.032,1.0,0.0081,0.181,0.469,8,123,327,8.272
-122.61,-45.2332,3.918,0.223,9.078,1.0,0.0024,0.49,0.748,20,231,264,8.786
-110.15,-44.3679,2.477,0.357,4.405,1.0,0.0024,0.71,0.531,18,264,155,6.735
-82.76,-43.765,0.294,3.225,0.362,1.0,0.0115,0.435,0.228,12,255,218,1.951
-122.09,-41.3532,1.527,0.58,2.836,1.0,0.0046,0.251,0.557,8,107,388,8.582
-100.05,-40.6504,1.823,0.479,2.595,1.0,0.0029,0.291,0.959,6,289,185,3.87
-79.52,-38.7162,0.627,1.41,0.812,1.0,0.0048,0.496,0.322,13,378,402,2.639
-88.66,-38.7034,4.675,0.195,7.103,1.0,0.0016,0.219,0.787,17,259,266,7.873
-82.47,-37.7517,1.621,0.535,2.281,1.0,0.0026,0.276,0.883,27,264,465,2.656
-66.05,-37.0124,0.634,1.464,0.759,1.0,0.0046,0.203,0.803,3,106,253,2.374
-69.67,-34.3281,0.543,1.746,0.62,1.0,0.007,0.256,0.565,20,49,430,3.751
-75.32,-32.0308,0.826,1.064,1.018,1.0,0.0043,0.097,0.959,12,103,103,3.086
-63.26,-31.6518,0.487,1.991,0.506,1.0,0.0111,0.414,0.386,10,39,391,3.389
-184.9,-31.4918,0.871,1.097,1.124,1.0,0.014,0.314,0.843,7,19,6,2.694
-95.24,-31.265,2.536,0.345,4.56,1.0,0.0021,0.912,0.234,10,332,115,5.556
-66.11,-31.1652,0.446,2.081,0.529,1.0,0.0109,0.32,0.043,30,63,433,6.064
-88.67,-30.6851,0.346,2.777,0.54,1.0,0.0096,0.677,0.302,25,306,477,1.951
-110.02,-29.956,2.865,0.303,5.303,1.0,0.003,0.094,0.694,21,116,434,8.892
-74.64,-28.9216,2.331,0.359,2.913,1.0,0.002,0.449,0.526,16,368,84,7.245
-143.19,-28.5788,1.733,0.506,2.708,1.0,0.0055,0.11,0.804,24,216,69,5.337
-102.5,-28.4976,1.494,0.599,2.013,1.0,0.0047,0.092,0.65,7,38,23,5.227
-105.96,-28.0352,0.995,0.894,1.411,1.0,0.005,0.511,0.804,17,164,114,4.656
-141.14,-27.5047,0.772,1.182,1.245,1.0,0.0092,0.361,0.968,5,97,297,5.422
-78.34,-25.8662,0.738,1.161,1.162,1.0,0.0043,0.868,0.266,29,332,421,2.299
-151.95,-25.8065,0.767,1.087,1.133,1.0,0.0092,0.165,0.693,24,263,407,5.291
-74.16,-25.7911,5.202,0.177,8.027,1.0,0.0013,0.625,0.64,17,111,155,8.852
-61.57,-24.4421,0.629,1.439,0.86,1.0,0.0043,0.791,0.621,7,283,262,1.482
-92.79,-24.013,0.584,1.483,0.726,1.0,0.0106,0.661,0.212,19,200,325,4.564
-57.65,-21.0826,2.884,0.314,4.677,1.0,0.0015,0.296,0.186,2,434,472,6.42
-48.63,-21.0469,27.91,0.035,16.728,1.0,0.0003,0.614,0.992,16,232,460,6.299
-112.81,-20.9687,0.66,1.268,0.783,1.0,0.0129,0.427,0.274,19,31,493,7.324
-116.37,-20.706,0.454,2.144,0.516,1.0,0.0139,0.219,0.575,17,228,80,4.575
-102.72,-20.0973,0.411,2.39,0.483,1.0,0.0136,0.432,0.853,23,252,259,2.616
-73.44,-19.8546,0.359,2.823,0.458,1.0,0.0106,0.783,0.373,6,237,390,1.563
-81.45,-18.8153,0.537,1.848,0.52,1.0,0.0149,0.309,0.536,3,43,168,4.947
-68.03,-18.4647,0.393,2.452,0.526,1.0,0.0083,0.001,0.334,18,251,233,4.874
-89.31,-18.4284,0.741,1.167,1.075,1.0,0.0069,0.155,0.35,24,156,91,6.648
-99.73,-17.4991,0.822,1.048,1.025,1.0,0.0069,0.369,0.798,8,317,279,5.203
-100.95,-17.1747,3.936,0.235,15.851,1.0,0.0021,0.364,0.811,31,416,191,1.767
-53.04,-16.968,17.936,0.067,33.423,1.0,0.0005,0.63,0.028,31,417,473,3.91
-79.67,-16.6177,1.873,0.456,3.316,1.0,0.0026,0.986,0.06,17,312,121,4.166
-70.84,-16.2793,0.305,3.077,0.501,1.0,0.0104,0.302,0.263,22,386,141,3.218
-97.74,-16.2356,0.738,1.167,1.06,1.0,0.0075,0.365,0.876,29,109,316,4.784
-58.44,-16.1511,3.839,0.236,4.654,1.0,0.0009,0.784,0.119,29,88,381,5.393
-80.15,-15.5558,0.366,2.512,0.553,1.0,0.0101,0.127,0.377,18,375,455,3.858
-78.06,-14.7971,0.603,1.536,0.666,1.0,0.0145,0.457,0.251,16,215,109,7.09
-36.45,-14.7929,0.621,1.518,0.661,1.0,0.0042,0.753,0.915,9,25,205,1.46
-65.74,-14.5985,0.3,3.181,0.354,1.0,0.0138,0.643,0.007,4,273,270,2.487
-160.24,-14.2037,0.582,1.508,0.742,1.0,0.0148,0.211,0.758,5,386,381,8.461
-64.71,-14.0916,0.645,1.373,0.877,1.0,0.0057,0.983,0.888,7,163,412,2.073
-76.75,-13.7517,0.434,2.244,0.628,1.0,0.0092,0.392,0.707,18,302,311,2.247
-75.05,-13.1114,0.537,1.665,0.537,1.0,0.0104,0.033,0.664,13,325,77,4.619
-74.63,-12.9498,0.52,1.876,0.551,1.0,0.0106,0.021,0.701,20,103,47,5.273
-78.02,-12.6513,0.382,2.591,0.459,1.0,0.0125,0.307,0.124,10,259,294,6.279
-58.93,-12.6118,0.608,1.628,0.675,1.0,0.015,0.39,0.345,8,106,303,5.043
-71.4,-12.5671,0.324,3.055,0.414,1.0,0.0126,0.364,0.525,23,328,191,2.183
-106.72,-12.3602,0.671,1.214,1.043,1.0,0.0089,0.105,0.661,24,269,369,5.106
-48.73,-11.8153,0.273,3.814,0.291,1.0,0.0149,0.173,0.305,6,202,82,2.308
-109.19,-11.7749,0.706,1.336,0.91,1.0,0.0101,0.87,0.957,16,170,15,4.953
-65.31,-11.4003,1.254,0.677,1.616,1.0,0.0039,0.166,0.651,19,325,309,5.948
-74.4,-9.8093,0.383,2.675,0.479,1.0,0.0134,0.585,0.81,27,246,127,2.295
-126.68,-9.5833,0.57,1.658,0.703,1.0,0.0143,0.06,0.788,20,237,112,8.18
-68.97,-8.9234,0.484,1.933,0.782,1.0,0.0078,0.844,0.144,18,334,36,2.975
-65.98,-8.8862,0.476,2.026,0.681,1.0,0.0083,0.884,0.268,3,257,317,2.877
-59.04,-8.8564,0.368,2.375,0.757,1.0,0.0083,0.118,0.271,17,338,404,3.261
-60.24,-8.6608,0.401,2.375,0.615,1.0,0.0085,0.304,0.305,23,292,220,3.618
-58.52,-8.1411,0.522,1.877,0.668,1.0,0.0111,0.431,0.265,1,22,450,6.196
-65.77,-7.7187,0.482,2.056,0.633,1.0,0.0145,0.947,0.504,28,68,491,3.064
-88.02,-7.5913,5.022,0.168,15.989,1.0,0.0024,0.706,0.818,0,436,313,8.912
-34.67,-6.9,0.35,2.746,0.419,1.0,0.0079,0.307,0.077,28,166,62,3.521
-69.02,-6.8187,0.389,2.663,0.503,1.0,0.015,0.511,0.267,5,325,446,4.933
-98.79,-6.6486,0.647,1.504,0.869,1.0,0.0121,0.122,0.68,20,201,350,8.105
-48.85,-6.4762,0.479,2.053,0.533,1.0,0.0102,0.612,0.557,5,65,65,2.999
-118.41,-6.4559,0.741,1.22,0.973,1.0,0.0133,0.117,0.881,10,65,197,8.438
-56.13,-6.417,0.717,1.277,1.089,1.0,0.0052,0.809,0.406,7,119,334,3.931
-43.14,-6.3651,0.871,1.033,1.463,1.0,0.0035,0.178,0.209,25,362,208,4.8
-98.65,-6.3145,0.697,1.238,1.019,1.0,0.0097,0.394,0.663,22,299,39,7.882
-93.85,-6.2706,0.662,1.416,0.754,1.0,0.0121,0.103,0.9,12,64,131,5.935
-76.63,-5.9314,1.119,0.785,1.78,1.0,0.0061,0.073,0.748,25,162,483,7.42
-43.13,-5.8193,0.541,1.573,1.252,1.0,0.0047,0.933,0.379,14,294,185,1.171
-55.4,-5.4482,0.42,2.245,0.693,1.0,0.0084,0.845,0.246,3,440,304,2.419
-130.65,-5.2998,0.794,1.155,1.208,1.0,0.0126,0.507,0.849,28,272,14,8.123
-68.06,-5.1039,4.807,0.199,14.107,1.0,0.0026,0.528,0.926,30,79,244,8.457
-72.61,-5.1029,0.472,2.068,0.645,1.0,0.0128,0.507,0.175,17,218,194,5.924
-78.54,-4.9782,0.74,1.17,1.074,1.0,0.0087,0.081,0.698,20,310,139,7.692
-47.29,-4.9438,0.802,1.074,1.012,1.0,0.0052,0.106,0.774,8,344,301,3.949
-73.17,-4.884,0.51,1.869,0.608,1.0,0.0128,0.064,0.686,9,198,436,5.128
-127.78,-4.8602,0.71,1.215,1.07,1.0,0.0131,0.103,0.91,14,205,178,8.774
-65.52,-4.7911,0.97,0.9,1.537,1.0,0.0054,0.275,0.692,1,323,44,5.64
-62.69,-4.7842,0.802,1.145,0.981,1.0,0.0065,0.502,0.778,10,96,3,5.7
-104.0,-4.4937,11.708,0.056,24.184,1.0,0.0008,0.898,0.632,11,39,65,7.833
-51.08,-4.4113,1.346,0.66,2.35,1.0,0.0033,0.934,0.269,27,284,56,3.901
-91.61,-4.2241,0.548,1.634,1.019,1.0,0.0129,0.656,0.645,22,221,318,7.18
-41.86,-4.1855,0.224,4.358,0.402,1.0,0.0139,0.081,0.594,15,292,8,2.049
-110.38,-4.0053,0.549,1.605,0.794,1.0,0.0149,0.136,0.829,3,379,463,8.624
-42.65,-3.8889,0.518,1.748,0.581,1.0,0.0109,0.594,0.016,19,206,431,4.225
-54.35,-3.8601,0.629,1.518,0.715,1.0,0.0132,0.396,0.542,8,187,239,5.408
-48.35,-3.8471,0.419,2.391,0.514,1.0,0.0113,0.266,0.135,22,190,370,6.947
-76.89,-3.8106,0.509,1.791,0.687,1.0,0.0135,0.254,0.744,4,319,425,5.402
-95.92,-3.778,1.781,0.529,3.763,1.0,0.0064,0.496,0.849,2,31,100,7.294
-41.51,-3.6298,6.452,0.135,5.246,1.0,0.0005,0.836,0.108,20,61,190,5.228
-90.29,-3.6034,2.048,0.457,3.179,1.0,0.006,0.169,0.977,24,277,24,5.139
-53.08,-3.2474,4.18,0.214,7.792,1.0,0.0019,0.857,0.869,8,174,416,5.754
-48.75,-3.0487,0.407,2.346,0.616,1.0,0.0098,0.402,0.129,6,362,141,4.557
-35.34,-2.7858,0.499,1.825,0.844,1.0,0.0057,0.256,0.007,11,116,346,8.286
-35.02,-2.7223,0.469,1.958,0.587,1.0,0.0074,0.05,0.77,2,121,58,3.29
-42.89,-2.6927,1.511,0.573,3.084,1.0,0.0029,0.797,0.112,21,358,26,3.933
-79.52,-2.6818,0.643,1.33,0.884,1.0,0.0149,0.933,0.33,19,70,146,5.08
-26.32,-2.6761,0.203,4.791,0.364,1.0,0.011,0.051,0.128,25,437,111,3.575
-34.95,-2.6378,2.336,0.397,4.088,1.0,0.0021,0.671,0.72,31,56,249,2.575
-53.64,-2.5651,0.655,1.389,0.852,1.0,0.0091,0.211,0.784,29,121,222,5.491
-29.05,-2.4994,0.237,4.287,0.376,1.0,0.0106,0.162,0.148,25,389,107,3.087
-44.27,-2.4702,0.377,2.578,0.511,1.0,0.0108,0.314,0.611,3,412,229,2.941
-41.25,-2.3503,5.745,0.172,14.284,1.0,0.0014,0.954,0.426,11,110,495,7.253
-50.85,-2.3091,0.487,2.012,0.636,1.0,0.0108,0.242,0.458,30,321,11,6.461
-32.4,-2.1451,0.584,1.603,0.856,1.0,0.0053,0.322,0.003,27,154,258,7.319
-97.38,-2.1066,0.763,1.112,1.196,1.0,0.0138,0.145,0.23,24,37,331,8.448
-58.25,-2.0497,0.372,2.46,0.636,1.0,0.0146,0.631,0.806,17,364,146,2.416
-46.12,-2.0082,0.414,2.452,0.48,1.0,0.0132,0.392,0.512,22,278,498,3.467
-41.24,-1.9848,0.361,2.893,0.46,1.0,0.014,0.776,0.053,30,307,394,3.198
-39.82,-1.881,0.571,1.729,0.766,1.0,0.0083,0.71,0.626,4,99,65,4.24
-51.08,-1.7562,1.328,0.649,1.922,1.0,0.0052,0.096,0.81,18,267,491,7.105
-59.29,-1.7285,1.131,0.713,2.808,1.0,0.006,0.945,0.829,20,60,467,4.981
-32.29,-1.6681,0.528,1.84,0.562,1.0,0.0123,0.907,0.956,26,55,306,2.142
-33.71,-1.638,0.299,3.149,0.496,1.0,0.0133,0.089,0.385,24,372,286,3.508
-46.81,-1.5714,0.522,1.804,0.573,1.0,0.015,0.608,0.597,13,401,499,3.656
-37.31,-1.5626,0.528,1.824,0.594,1.0,0.0123,0.306,0.37,27,59,243,7.145
-31.62,-1.5524,0.218,4.268,0.49,1.0,0.0148,0.231,0.108,11,381,245,3.651
-78.51,-1.5404,0.635,1.379,0.925,1.0,0.0137,0.29,0.973,23,178,55,7.801
-54.33,-1.4911,0.612,1.258,1.419,1.0,0.0081,0.111,0.408,11,380,390,7.794
-67.61,-1.4748,1.057,0.75,2.584,1.0,0.0072,0.368,0.683,11,399,99,7.55
-33.08,-1.4705,1.752,0.514,2.56,1.0,0.0029,0.426,0.546,1,184,110,6.352
-55.38,-1.4605,0.971,0.906,1.376,1.0,0.0074,0.051,0.795,12,269,98,8.227
-24.26,-1.4553,0.296,3.075,0.538,1.0,0.0079,0.005,0.768,12,361,91,1.38
-25.9,-1.4546,0.272,3.581,0.484,1.0,0.0096,0.487,0.093,27,399,270,1.747
-20.54,-1.4333,0.281,3.616,0.336,1.0,0.0094,0.123,0.51,26,240,252,1.448
-34.24,-1.4111,0.818,1.087,1.152,1.0,0.0025,0.577,0.068,7,21,253,4.293
-57.4,-1.4019,0.388,2.248,0.703,1.0,0.0137,0.155,0.667,14,310,218,5.59
-28.67,-1.3714,0.308,2.873,0.654,1.0,0.0084,0.105,0.691,21,300,103,1.795
-25.11,-1.3603,0.701,1.272,1.172,1.0,0.0039,0.384,0.747,23,305,135,1.45
-55.68,-1.3185,1.975,0.448,3.703,1.0,0.005,0.259,0.947,2,280,193,8.068
-69.49,-1.3137,0.762,1.162,1.24,1.0,0.011,0.349,0.784,30,227,478,8.596
-73.68,-1.2534,0.599,1.489,1.115,1.0,0.0144,0.879,0.532,19,123,159,7.099
-24.69,-1.2506,0.574,1.653,0.615,1.0,0.0103,0.743,0.072,13,107,21,3.53
-32.34,-1.2319,1.548,0.6,2.563,1.0,0.0031,0.774,0.534,25,241,60,4.575
-38.91,-1.1477,2.228,0.396,3.82,1.0,0.0037,0.113,0.895,10,160,366,7.408
-81.02,-1.1399,3.715,0.291,9.623,1.0,0.0063,0.219,0.922,15,69,16,8.815
-47.23,-1.0985,0.758,1.203,0.973,1.0,0.009,0.377,0.832,13,402,401,5.844
-34.39,-1.0856,2.558,0.338,4.198,1.0,0.002,0.84,0.439,8,256,294,6.053
-39.03,-1.0572,0.629,1.446,1.023,1.0,0.0077,0.855,0.764,5,237,115,3.654
-31.18,-1.0157,0.443,2.132,0.734,1.0,0.0086,0.804,0.032,5,212,339,4.097
-41.38,-1.0143,0.479,1.823,0.898,1.0,0.0095,0.128,0.368,17,355,369,6.093
0.0,-1.0,0.0,0.0,0.0,0.0,0.0024,0.276,0.961,24,433,493,8.258
0.0,-1.0,0.0,0.0,0.0,0.0,0.0003,0.882,0.038,13,14,25,6.402
0.0,-1.0,0.0,0.0,0.0,0.0,0.011,0.941,0.497,14,5,117,8.402
0.0,-1.0,0.0,0.0,0.0,0.0,0.0085,0.796,0.842,19,16,18,4.771
0.0,-1.0,0.0,0.0,0.0,0.0,0.014,0.616,0.094,9,444,52,5.582
0.0,-1.0,0.0,0.0,0.0,0.0,0.0028,0.503,0.525,24,21,222,4.164
0.0,-1.0,0.0,0.0,0.0,0.0,0.0061,0.746,0.551,22,24,10,7.189
-21.59,-0.9914,0.401,2.336,0.603,1.0,0.0066,0.1,0.478,11,112,165,2.801
-32.28,-0.9661,0.309,3.205,0.414,1.0,0.0144,0.08,0.513,4,389,181,3.751
-108.59,-0.8404,1.612,0.515,4.581,1.0,0.0091,0.885,0.849,24,158,274,6.311
-21.54,-0.8211,0.253,4.019,0.304,1.0,0.0146,0.339,0.11,0,157,172,2.785
-38.4,-0.8045,0.411,2.564,0.673,1.0,0.0137,0.687,0.242,3,378,466,4.655
-32.87,-0.7774,0.649,1.455,0.933,1.0,0.0075,0.596,0.772,4,118,182,4.665
-49.8,-0.6954,1.035,0.804,2.16,1.0,0.0076,0.396,0.921,21,138,260,6.857
-39.08,-0.6927,0.464,2.118,0.529,1.0,0.0143,0.032,0.64,18,310,339,5.779
-55.5,-0.6872,1.313,0.657,2.745,1.0,0.0075,0.634,0.95,29,221,223,7.989
-48.91,-0.6806,0.564,1.697,0.801,1.0,0.0142,0.532,0.459,9,218,490,7.162
-33.76,-0.6435,0.649,1.478,0.769,1.0,0.0099,0.412,0.943,9,54,36,5.53
-55.42,-0.6038,0.716,1.206,1.159,1.0,0.0124,0.367,0.584,0,18,459,8.705
-33.58,-0.5916,0.443,2.07,0.586,1.0,0.012,0.074,0.441,4,346,423,6.749
-124.57,-0.5914,0.891,0.884,2.677,1.0,0.0137,0.745,0.709,24,79,184,5.111
-52.37,-0.5709,0.627,1.437,0.896,1.0,0.0126,0.175,0.782,28,349,316,8.362
-47.65,-0.5142,0.627,1.28,1.473,1.0,0.0098,0.258,0.81,21,449,178,5.557
-43.09,-0.5058,1.967,0.447,4.299,1.0,0.0054,0.501,0.743,4,59,255,8.714
-15.49,-0.467,1.052,0.862,1.434,1.0,0.0028,0.413,0.603,3,240,333,2.203
-41.61,-0.4418,0.8,1.079,1.444,1.0,0.0087,0.378,0.81,27,341,423,6.566
-16.58,-0.414,0.649,1.396,1.115,1.0,0.004,0.319,0.036,12,311,175,4.62
-43.43,-0.4064,1.143,0.729,2.446,1.0,0.0071,0.257,0.88,0,344,244,7.012
-28.76,-0.405,0.505,2.082,0.588,1.0,0.0144,0.322,0.675,5,135,118,5.361
-45.12,-0.3692,1.362,0.676,2.056,1.0,0.0074,0.428,0.925,27,263,9,8.496
-43.4,-0.3561,1.209,0.699,2.661,1.0,0.0074,0.616,0.793,5,399,290,8.616
-20.89,-0.342,0.401,2.422,0.468,1.0,0.0106,0.452,0.958,10,222,410,1.747
-28.49,-0.3401,0.867,1.072,1.3,1.0,0.0065,0.46,0.829,17,148,139,6.463
-52.2,-0.3125,1.279,0.791,2.008,1.0,0.0114,0.041,0.346,2,3,75,6.788
-23.06,-0.3108,0.608,1.546,0.799,1.0,0.0073,0.376,0.727,9,168,436,3.054
-16.16,-0.2813,19.082,0.05,24.337,1.0,0.0005,0.688,0.691,29,217,131,8.839
-26.28,-0.2729,0.487,1.698,1.019,1.0,0.0086,0.543,0.313,17,418,374,3.173
-32.6,-0.2594,5.829,0.158,20.056,1.0,0.0026,0.526,0.923,31,157,472,7.883
-68.93,-0.229,0.41,1.624,0.515,1.0,0.0149,0.686,0.164,29,53,2,6.546
-25.01,-0.1892,7.139,0.172,29.312,1.0,0.0023,0.026,0.778,31,267,71,8.986
-27.04,-0.1857,0.901,0.979,1.42,1.0,0.0072,0.759,0.788,8,280,285,5.862
-37.62,-0.1855,0.836,1.115,1.391,1.0,0.0118,0.467,0.878,26,50,324,7.419
-15.18,-0.1819,0.473,2.126,0.525,1.0,0.0117,0.183,0.175,20,115,451,8.921
-17.31,-0.1806,1.517,0.563,2.321,1.0,0.0037,0.222,0.488,5,143,483,8.223
-43.25,-0.1758,0.646,1.311,1.282,1.0,0.0138,0.325,0.989,11,185,112,7.95
-16.93,-0.1711,0.434,2.219,0.56,1.0,0.0096,0.39,0.072,7,375,215,5.836
-15.31,-0.1703,1.196,0.752,1.837,1.0,0.0034,0.402,0.624,26,435,267,2.991
-43.13,-0.1688,0.571,1.549,1.43,1.0,0.0148,0.475,0.576,24,285,205,7.929
-13.77,-0.1604,0.675,1.462,0.97,1.0,0.0052,0.297,0.288,26,112,228,6.947
-30.54,-0.1594,0.857,0.947,1.888,1.0,0.0078,0.768,0.706,17,414,357,5.714
-27.56,-0.1371,1.12,0.752,2.318,1.0,0.0067,0.809,0.964,6,217,167,6.856
-15.65,-0.1324,0.291,3.368,0.376,1.0,0.0144,0.355,0.218,6,393,208,2.768
-23.14,-0.1292,0.53,1.766,0.838,1.0,0.0145,0.823,0.224,10,13,402,4.965
-16.33,-0.1213,0.712,1.232,1.151,1.0,0.0057,0.023,0.334,12,428,383,7.872
-16.45,-0.1152,0.622,1.457,0.747,1.0,0.0081,0.776,0.846,13,335,56,2.831
-18.52,-0.0958,1.946,0.501,11.185,1.0,0.0032,0.199,0.01,31,442,414,6.954
-26.17,-0.0845,1.061,0.771,2.32,1.0,0.0075,0.511,0.791,23,430,268,8.059
-23.14,-0.0744,0.683,1.462,0.73,1.0,0.0144,0.261,0.92,13,434,153,6.591
-25.6,-0.0697,0.795,0.978,2.209,1.0,0.0085,0.838,0.343,15,393,256,6.693
-24.05,-0.0663,1.413,0.647,2.434,1.0,0.0071,0.484,0.735,5,73,146,8.918
-21.08,-0.0633,0.755,1.126,1.608,1.0,0.008,0.969,0.745,6,249,197,6.118
-12.35,-0.0618,0.656,1.401,0.75,1.0,0.0093,0.621,0.697,16,254,415,3.821
-10.14,-0.0615,0.249,3.894,0.378,1.0,0.0133,0.229,0.624,21,243,246,1.499
-13.8,-0.055,0.558,1.687,0.79,1.0,0.008,0.218,0.951,10,301,6,3.499
-21.14,-0.0542,1.147,0.742,2.518,1.0,0.0066,0.669,0.647,12,289,313,8.777
-10.93,-0.0414,0.391,2.509,0.567,1.0,0.0099,0.126,0.192,27,291,34,8.769
-8.66,-0.0401,0.749,1.22,1.016,1.0,0.0056,0.277,0.897,25,50,210,3.456
-9.87,-0.04,0.463,2.247,0.537,1.0,0.014,0.631,0.339,25,82,232,3.806
-15.59,-0.04,0.425,2.254,0.612,1.0,0.0139,0.227,0.828,27,355,415,4.051
-10.83,-0.0394,0.593,1.571,0.886,1.0,0.0065,0.458,0.447,10,248,42,4.249
-10.21,-0.0372,0.251,3.594,0.755,1.0,0.0113,0.537,0.905,31,78,248,1.117
-9.14,-0.0343,0.58,1.699,0.722,1.0,0.0064,0.602,0.211,25,162,480,3.429
-11.04,-0.0343,0.629,1.497,0.82,1.0,0.0082,0.122,0.959,28,127,282,3.978
-18.71,-0.0341,1.006,0.861,1.7,1.0,0.0074,0.938,0.875,16,255,411,6.645
-10.3,-0.0305,0.567,1.729,0.826,1.0,0.0083,0.972,0.666,5,82,165,3.185
-12.53,-0.0295,0.62,1.432,0.819,1.0,0.0094,0.252,0.719,6,119,459,6.347
-7.66,-0.0291,0.431,2.141,0.793,1.0,0.0062,0.022,0.132,18,410,282,8.428
-7.12,-0.0227,1.955,0.443,3.981,1.0,0.0022,0.507,0.814,17,440,168,1.852
-8.36,-0.0224,2.383,0.381,4.316,1.0,0.0021,0.871,0.176,1,210,263,5.984
-20.22,-0.0221,0.568,1.493,1.182,1.0,0.0132,0.922,0.796,12,331,201,7.268
-12.44,-0.0217,0.731,1.317,0.895,1.0,0.0114,0.418,0.619,16,270,456,7.81
-12.49,-0.0215,0.669,1.402,0.739,1.0,0.0105,0.554,0.913,8,446,56,4.291
-66.26,-0.0203,8.472,0.154,31.199,1.0,0.0098,0.025,0.623,7,2,146,2.072
-13.77,-0.0183,0.337,2.367,0.699,1.0,0.0145,0.297,0.564,11,374,173,4.924
-13.67,-0.0181,0.806,1.019,1.529,1.0,0.0079,0.4,0.609,6,369,275,8.268
-6.85,-0.0173,0.674,1.418,0.891,1.0,0.0058,0.509,0.673,3,112,125,3.627
-7.97,-0.0089,0.859,1.041,1.614,1.0,0.0061,0.5,0.508,3,113,443,7.084
-8.3,-0.0073,0.445,2.077,0.713,1.0,0.0112,0.121,0.516,4,448,70,6.445
-9.3,-0.007,0.431,1.882,1.056,1.0,0.011,0.257,0.833,21,410,393,3.371
-16.4,-0.0064,0.729,1.362,1.668,1.0,0.0128,0.976,0.701,20,263,442,8.943
-5.0,-0.0058,0.483,1.933,0.622,1.0,0.0083,0.071,0.624,24,243,87,3.441
-12.76,-0.0054,0.757,1.235,0.928,1.0,0.0146,0.071,0.875,0,25,18,6.222
-8.88,-0.0045,1.058,0.812,2.246,1.0,0.0069,0.567,0.702,26,405,383,7.604
-7.57,-0.0041,0.473,2.169,0.781,1.0,0.0132,0.732,0.341,6,425,364,4.351
-7.49,-0.003,0.493,1.945,0.896,1.0,0.0128,0.552,0.299,30,336,336,8.343
-4.2,-0.0027,0.386,2.43,0.654,1.0,0.0088,0.095,0.617,22,449,452,2.788
-9.27,-0.0019,0.513,1.814,1.685,1.0,0.0136,0.774,0.181,31,229,161,3.755
-4.59,-0.0018,0.503,1.921,0.688,1.0,0.0103,0.465,1.0,5,328,167,3.212
-4.52,-0.0015,0.466,2.057,0.577,1.0,0.0119,0.217,0.996,27,280,290,2.974
-4.3,-0.0013,0.607,1.618,0.996,1.0,0.008,0.645,0.396,18,28,327,6.562
-3.11,-0.0012,0.688,1.359,0.88,1.0,0.006,0.204,0.406,6,100,304,7.943
-3.02,-0.0011,0.361,2.768,0.422,1.0,0.0118,0.345,0.623,3,322,39,2.604
-1.83,-0.0008,0.453,2.037,0.721,1.0,0.0051,0.856,0.73,5,398,107,1.053
-4.62,-0.0007,0.742,1.292,1.397,1.0,0.0057,0.574,0.265,8,44,337,7.0
-1.6,-0.0002,0.408,2.418,0.423,1.0,0.0118,0.067,0.619,27,176,395,3.273
-4.98,-0.0001,8.764,0.119,16.021,1.0,0.0012,0.991,0.113,24,223,376,8.969
-4.22,-0.0001,1.315,0.648,3.957,1.0,0.0079,0.994,0.807,21,440,180,7.587
-2.27,-0.0001,0.663,1.407,1.24,1.0,0.0088,0.691,0.643,12,193,130,6.609
-2.24,-0.0,0.718,1.346,1.119,1.0,0.0137,0.509,0.882,28,254,494,8.551
-0.66,-0.0,1.22,0.74,2.022,1.0,0.0033,0.491,0.605,6,436,30,2.54
-0.97,-0.0,0.76,1.174,1.349,1.0,0.0053,0.519,0.077,12,336,283,6.132
1.89,0.0,0.87,1.191,3.239,1.0,0.0112,0.311,0.844,31,402,280,3.223
-0.91,-0.0,1.12,0.792,2.374,1.0,0.0061,0.726,0.428,6,345,470,8.841
-1.43,-0.0,0.533,1.642,0.857,1.0,0.0111,0.101,0.92,25,439,162,4.988
-7.31,-0.0,0.561,0.622,0.57,1.0,0.0148,0.768,0.118,19,37,2,7.277
-0.54,-0.0,0.587,1.616,1.049,1.0,0.0085,0.472,0.459,4,372,123,5.552
-2.26,-0.0,1.511,0.618,3.676,1.0,0.0091,0.186,0.976,31,189,423,7.654
0.61,0.0,0.291,3.364,0.47,1.0,0.0094,0.337,0.053,25,378,94,3.317
1.62,0.0001,1.173,0.747,1.762,1.0,0.0053,0.113,0.917,5,177,356,5.326
3.8,0.0002,0.434,1.915,1.274,1.0,0.0135,0.834,0.042,21,435,183,7.139
2.64,0.0003,1.068,0.806,1.704,1.0,0.0053,0.486,0.852,12,261,187,5.067
1.51,0.0003,26.744,0.04,16.1,1.0,0.0003,0.916,0.576,10,206,322,7.789
3.42,0.0006,0.847,1.052,1.225,1.0,0.0065,0.045,0.723,29,447,248,5.994
9.66,0.0013,2.052,0.396,5.569,1.0,0.0056,0.984,0.949,19,102,303,8.039
22.14,0.0015,0.712,1.741,0.938,1.0,0.0088,0.758,0.096,16,8,198,5.808
7.32,0.0027,0.551,1.814,0.925,1.0,0.0125,0.76,0.777,20,166,19,5.923
7.63,0.0029,0.578,1.595,1.016,1.0,0.0124,0.831,0.546,7,133,438,5.798
10.43,0.0037,1.761,0.625,3.762,1.0,0.0031,0.927,0.244,5,210,23,7.463
5.61,0.0041,0.667,1.498,1.375,1.0,0.0048,0.842,0.093,28,43,490,4.942
5.89,0.0041,1.424,0.608,2.1,1.0,0.004,0.618,0.591,19,337,446,6.808
9.31,0.0048,1.607,0.556,3.019,1.0,0.0062,0.568,0.964,14,42,227,6.095
12.46,0.0055,0.542,1.585,1.114,1.0,0.0132,0.56,0.547,14,404,76,6.97
4.88,0.0057,0.244,4.216,0.323,1.0,0.0149,0.055,0.543,23,405,93,2.471
8.3,0.0059,6.518,0.137,17.563,1.0,0.0017,0.697,0.838,1,21,182,6.636
34.91,0.0078,3.919,0.321,16.574,1.0,0.0046,0.691,0.6,24,59,237,6.624
10.1,0.0106,0.7,1.236,1.298,1.0,0.0076,0.712,0.515,10,340,296,4.932
10.82,0.0114,0.752,1.196,1.339,1.0,0.009,0.542,0.613,16,243,220,8.885
14.85,0.0123,1.235,0.703,2.633,1.0,0.0075,0.085,0.877,11,442,176,8.96
28.45,0.0128,0.96,1.056,2.638,1.0,0.015,0.748,0.858,24,204,136,7.431
14.95,0.0131,0.624,1.523,1.032,1.0,0.0138,0.766,0.884,7,326,230,6.565
9.47,0.0141,0.569,1.673,0.949,1.0,0.009,0.7,0.349,27,68,439,5.863
7.12,0.0151,0.718,1.29,1.273,1.0,0.0047,0.796,0.012,27,345,311,3.011
8.16,0.0153,0.395,2.55,0.516,1.0,0.012,0.439,0.032,26,259,67,6.803
7.59,0.0155,0.422,2.604,0.459,1.0,0.0134,0.275,0.46,5,196,2,5.175
65.85,0.0193,2.331,0.392,10.028,1.0,0.0112,0.855,0.762,24,102,340,8.762
11.19,0.0201,0.551,1.762,0.762,1.0,0.0097,0.516,0.018,9,157,54,8.741
18.8,0.0219,0.501,1.555,1.167,1.0,0.0133,0.916,0.52,15,421,271,4.816
6.29,0.0232,0.353,3.079,0.362,1.0,0.0146,0.559,0.354,5,133,73,2.237
7.1,0.0235,0.506,1.845,0.582,1.0,0.0075,0.079,0.643,30,137,84,3.714
7.73,0.0247,1.083,0.818,1.634,1.0,0.0036,0.015,0.879,10,312,72,3.321
7.67,0.0275,1.417,0.642,2.357,1.0,0.0028,0.663,0.426,2,340,291,2.955
12.5,0.0285,0.765,1.239,1.541,1.0,0.0067,0.807,0.622,28,96,427,5.17
27.85,0.029,0.69,1.318,1.768,1.0,0.0133,0.975,0.703,21,175,433,8.706
30.31,0.0297,0.956,1.146,3.101,1.0,0.0129,0.343,0.664,31,350,79,6.247
39.49,0.0319,0.553,1.938,1.393,1.0,0.0116,0.94,0.024,0,4,386,6.181
14.67,0.0338,0.344,2.598,0.666,1.0,0.0146,0.693,0.693,15,280,471,2.712
13.15,0.0368,0.383,2.597,0.595,1.0,0.0127,0.192,0.204,6,444,335,7.464
17.16,0.0472,0.536,1.778,0.945,1.0,0.0107,0.573,0.363,28,327,342,6.922
13.98,0.0616,0.475,2.271,0.61,1.0,0.0131,0.406,0.13,18,185,118,7.708
17.13,0.0676,0.422,2.447,0.624,1.0,0.0143,0.504,0.08,4,296,136,7.487
13.42,0.0727,0.461,2.163,0.559,1.0,0.0106,0.774,0.658,7,351,27,2.493
15.81,0.0732,0.574,1.645,0.847,1.0,0.0082,0.137,0.369,10,322,427,7.625
20.52,0.0745,0.694,1.252,1.157,1.0,0.0088,0.217,0.538,12,422,463,7.712
13.17,0.0758,0.872,1.112,1.197,1.0,0.0048,0.932,0.856,4,159,9,3.085
39.77,0.0787,0.561,1.736,0.947,1.0,0.0144,0.615,0.097,25,6,351,7.429
14.64,0.0802,0.565,1.718,0.816,1.0,0.0076,0.613,0.416,22,234,435,3.724
16.24,0.096,0.572,1.691,0.906,1.0,0.0073,0.425,0.093,26,235,123,8.702
51.58,0.0969,1.574,0.889,6.0,1.0,0.0024,0.56,0.203,22,9,118,7.997
37.45,0.0971,0.701,1.409,1.918,1.0,0.0126,0.022,0.806,31,237,400,5.33
23.41,0.1002,0.371,2.379,0.976,1.0,0.0127,0.88,0.04,15,425,14,4.668
19.93,0.1104,0.605,1.684,0.746,1.0,0.0097,0.623,0.349,18,208,145,5.832
15.89,0.1249,0.623,1.434,0.712,1.0,0.0081,0.408,0.645,16,394,219,4.049
16.52,0.1276,0.726,1.265,0.916,1.0,0.0073,0.471,0.803,16,324,123,4.584
39.93,0.1378,1.143,0.839,1.722,1.0,0.0115,0.243,0.934,9,51,27,8.471
27.23,0.1412,0.419,2.205,0.636,1.0,0.0147,0.21,0.488,14,192,147,8.611
15.93,0.1453,0.372,2.634,0.604,1.0,0.0094,0.928,0.699,27,390,499,1.216
19.98,0.1506,1.075,0.859,1.44,1.0,0.0061,0.065,0.945,8,246,168,5.636
17.08,0.1566,0.708,1.286,0.836,1.0,0.0064,0.107,0.558,13,405,399,5.435
14.73,0.1602,0.687,1.35,0.959,1.0,0.0052,0.133,0.267,3,299,418,6.832
40.32,0.1633,0.867,1.076,2.714,1.0,0.0095,0.948,0.163,31,220,333,3.631
52.12,0.1818,2.183,0.453,4.382,1.0,0.0035,0.998,0.205,30,239,17,8.189
27.75,0.1972,0.469,2.151,0.845,1.0,0.0123,0.905,0.427,27,349,340,4.127
32.02,0.2152,0.713,1.229,1.251,1.0,0.0093,0.621,0.998,29,363,154,5.523
27.3,0.2217,2.759,0.342,6.563,1.0,0.0033,0.966,0.825,18,195,404,7.473
20.2,0.2268,0.588,1.592,0.906,1.0,0.0067,0.179,0.171,30,406,375,8.992
26.84,0.2503,0.716,1.302,1.296,1.0,0.0074,0.505,0.416,6,285,318,6.908
27.37,0.2524,0.652,1.449,1.101,1.0,0.0083,0.139,0.649,17,284,223,6.491
28.12,0.2528,2.969,0.325,6.517,1.0,0.0042,0.284,0.899,1,19,310,7.279
28.16,0.2598,0.824,1.131,1.148,1.0,0.0075,0.717,0.76,8,418,273,5.125
32.48,0.2779,0.974,0.906,1.735,1.0,0.0067,0.577,0.715,18,348,52,7.644
20.87,0.2962,1.456,0.606,2.404,1.0,0.0034,0.143,0.407,31,53,166,6.746
33.92,0.2963,0.709,1.404,0.83,1.0,0.0108,0.292,0.751,7,382,384,6.803
66.67,0.2987,0.679,1.412,1.929,1.0,0.0145,0.99,0.951,31,236,471,3.602
51.2,0.3063,0.72,1.301,1.308,1.0,0.0125,0.812,0.789,23,86,149,7.804
27.6,0.3098,0.427,2.391,0.662,1.0,0.0121,0.839,0.948,1,384,36,2.341
40.31,0.3229,0.984,0.923,2.131,1.0,0.0071,0.822,0.318,17,422,54,8.943
29.95,0.3238,43.243,0.028,3.458,1.0,0.0001,0.881,0.088,30,80,393,7.277
22.0,0.3397,0.4,2.578,0.431,1.0,0.0128,0.155,0.266,28,298,144,6.621
43.82,0.3464,0.82,1.081,1.619,1.0,0.0086,0.993,0.654,9,386,309,5.306
18.15,0.3564,0.828,1.123,1.171,1.0,0.0054,0.273,0.944,19,140,325,3.765
21.98,0.3717,0.321,3.12,0.487,1.0,0.0115,0.049,0.306,11,234,33,6.141
31.08,0.3834,0.691,1.295,1.204,1.0,0.0078,0.311,0.579,15,127,73,7.126
50.62,0.404,0.76,1.114,2.308,1.0,0.009,0.629,0.099,31,160,12,6.26
28.25,0.4158,0.484,1.959,0.739,1.0,0.0097,0.257,0.856,22,358,367,3.361
37.23,0.4207,0.72,1.273,1.313,1.0,0.0082,0.184,0.454,9,434,209,7.484
47.17,0.439,1.228,0.667,3.204,1.0,0.0068,0.686,0.531,11,363,313,7.835
33.81,0.4435,0.504,2.062,0.787,1.0,0.0143,0.873,0.393,10,148,420,4.827
45.17,0.4455,0.579,1.429,1.436,1.0,0.0107,0.851,0.822,15,419,300,3.669
23.79,0.4555,0.535,1.837,0.834,1.0,0.008,0.657,0.232,26,58,95,5.238
32.24,0.4616,0.572,1.991,0.658,1.0,0.0128,0.886,0.979,25,114,55,3.69
28.55,0.5301,0.711,1.379,0.988,1.0,0.0071,0.626,0.864,18,98,120,4.751
35.93,0.557,0.552,1.804,0.714,1.0,0.0145,0.769,0.38,4,50,211,5.237
51.46,0.5619,0.5,2.021,0.943,1.0,0.0149,0.994,0.46,9,340,269,5.32
16.67,0.5945,0.28,3.621,0.385,1.0,0.0094,0.019,0.923,26,297,161,1.153
46.27,0.6241,0.818,1.089,1.941,1.0,0.0073,0.778,0.372,22,242,445,8.372
28.52,0.6333,0.514,1.997,0.646,1.0,0.0091,0.827,0.967,11,63,465,2.321
38.65,0.6625,0.558,1.446,1.559,1.0,0.0076,0.996,0.098,15,417,389,3.469
49.93,0.6815,0.579,1.654,0.987,1.0,0.0119,0.697,0.672,3,429,37,6.376
69.59,0.709,0.652,1.363,1.675,1.0,0.0127,0.967,0.929,30,356,72,7.745
41.76,0.7164,2.325,0.396,5.83,1.0,0.004,0.544,0.84,14,276,245,7.301
38.13,0.7276,0.538,1.851,0.647,1.0,0.0122,0.209,0.521,30,253,163,7.215
35.17,0.7616,0.318,2.776,0.692,1.0,0.0115,0.466,0.472,14,361,1,3.588
51.47,0.7655,0.689,1.36,1.292,1.0,0.0096,0.631,0.532,10,345,154,7.883
29.22,0.7676,0.519,1.904,0.547,1.0,0.0113,0.214,0.904,25,98,138,3.515
46.87,0.7796,0.473,1.834,0.998,1.0,0.0111,0.668,0.913,14,311,78,3.405
28.41,0.7919,0.454,2.223,0.582,1.0,0.0102,0.818,0.407,2,121,473,2.807
28.39,0.7979,1.747,0.537,3.152,1.0,0.0029,0.46,0.2,11,143,467,7.779
60.77,0.8185,2.817,0.461,9.951,1.0,0.0049,0.288,0.397,31,427,458,6.866
57.8,0.8569,0.59,1.466,1.117,1.0,0.0117,0.642,0.913,15,204,256,5.036
28.9,0.8627,0.418,2.171,2.441,1.0,0.0067,0.338,0.205,31,184,415,1.412
35.03,0.9106,1.407,0.633,2.823,1.0,0.004,0.198,0.844,0,298,238,4.17
61.17,0.9765,1.248,0.728,3.16,1.0,0.0065,0.913,0.453,23,411,466,8.673
48.6,0.9803,0.56,1.746,0.839,1.0,0.0129,0.49,0.473,27,103,263,8.457
84.31,0.9843,0.542,1.903,1.698,1.0,0.0145,0.708,0.359,31,274,83,3.949
29.35,1.0194,0.881,1.068,1.242,1.0,0.0044,0.935,0.667,28,241,36,2.762
39.54,1.0527,0.656,1.486,1.019,1.0,0.0076,0.497,0.347,1,186,365,6.652
33.85,1.1284,0.399,2.38,2.187,1.0,0.0076,0.405,0.041,31,177,285,2.263
50.84,1.146,2.289,0.402,3.141,1.0,0.0043,0.284,0.945,22,371,35,8.575
86.52,1.1617,0.585,1.657,1.384,1.0,0.012,0.984,0.306,24,220,392,5.668
36.48,1.1765,0.341,3.328,0.51,1.0,0.0141,0.973,0.114,6,417,380,2.176
34.6,1.1964,0.496,1.975,0.58,1.0,0.0111,0.518,0.261,15,14,3,4.636
61.07,1.2072,0.764,1.133,2.025,1.0,0.0084,0.626,0.713,31,95,85,4.245
87.72,1.3785,1.912,0.491,4.33,1.0,0.0062,0.99,0.83,20,162,135,8.195
58.77,1.4032,0.848,1.322,4.859,1.0,0.0075,0.434,0.187,31,364,173,3.489
68.53,1.4718,0.58,1.464,1.157,1.0,0.0115,0.477,0.492,14,220,196,8.552
43.29,1.4955,0.583,1.653,0.706,1.0,0.0096,0.817,0.574,13,426,482,3.167
57.71,1.5062,0.707,1.411,0.976,1.0,0.0103,0.772,0.236,19,376,51,7.458
66.69,1.5164,0.535,1.933,1.033,1.0,0.0141,0.751,0.453,29,170,392,7.581
77.43,1.5295,1.242,0.735,2.148,1.0,0.0081,0.651,0.834,8,270,313,8.966
65.64,1.5344,0.485,1.676,1.263,1.0,0.0109,0.987,0.171,15,430,481,4.748
57.24,1.5449,0.51,1.874,1.09,1.0,0.0108,0.785,0.354,1,412,424,5.155
45.81,1.5544,1.1,0.853,1.807,1.0,0.0052,0.489,0.691,6,307,376,5.419
85.02,1.5697,0.661,1.591,1.22,1.0,0.014,0.751,0.772,22,100,204,8.023
42.08,1.6105,0.934,0.98,1.483,1.0,0.0052,0.797,0.832,20,307,229,3.428
36.33,1.6789,0.544,1.769,0.762,1.0,0.0072,0.499,0.925,5,326,453,2.486
33.52,1.7045,0.424,2.415,0.499,1.0,0.0126,0.35,0.148,28,165,264,5.914
64.03,1.7528,0.54,1.815,0.838,1.0,0.0116,0.118,0.528,9,435,95,6.944
57.32,1.7551,0.493,2.155,0.849,1.0,0.0131,0.805,0.346,25,216,401,5.695
54.69,1.7867,1.578,0.505,3.792,1.0,0.0041,0.563,0.273,15,315,223,8.212
59.28,1.8468,0.625,1.513,1.246,1.0,0.0086,0.905,0.506,6,69,371,6.277
72.75,2.0747,0.629,1.532,1.252,1.0,0.0115,0.762,0.787,20,151,174,6.418
48.85,2.0803,3.18,0.31,6.353,1.0,0.0038,0.002,0.484,24,81,496,7.253
81.78,2.1186,0.63,1.504,1.686,1.0,0.0102,0.996,0.026,15,280,341,7.469
24.97,2.1547,0.702,1.312,0.982,1.0,0.0036,0.556,0.401,11,44,19,3.061
93.27,2.1637,1.055,0.936,2.158,1.0,0.0092,0.747,0.722,29,116,203,8.681
48.33,2.1773,0.605,1.58,0.898,1.0,0.0079,0.518,0.878,23,286,430,2.867
57.09,2.2024,0.717,1.134,1.622,1.0,0.0067,0.612,0.734,21,344,195,3.303
50.97,2.2201,0.368,2.956,0.478,1.0,0.0145,0.3,0.421,2,398,57,5.169
40.08,2.2375,0.919,1.004,1.592,1.0,0.004,0.675,0.22,19,212,409,6.072
61.98,2.2467,0.658,1.427,1.272,1.0,0.0091,0.813,0.823,25,301,149,4.527
37.77,2.3548,1.598,0.592,2.724,1.0,0.0027,0.512,0.273,23,96,427,7.916
28.26,2.4596,0.537,1.652,1.096,1.0,0.0044,0.117,0.15,22,380,343,4.433
56.4,2.4673,1.755,0.52,3.074,1.0,0.0041,0.628,0.736,9,125,181,8.583
59.29,2.4983,1.455,0.628,3.336,1.0,0.0053,0.521,0.648,24,187,461,4.821
51.25,2.5316,0.786,1.183,1.17,1.0,0.0063,0.216,0.547,26,351,178,6.575
77.48,2.5559,0.737,1.111,1.839,1.0,0.0088,0.478,0.524,0,414,495,6.042
43.95,2.6158,0.786,1.182,1.163,1.0,0.0054,0.679,0.883,15,95,298,2.756
58.9,2.681,0.509,2.128,0.621,1.0,0.0148,0.66,0.646,30,163,205,4.763
51.71,2.7406,0.585,1.524,1.123,1.0,0.0069,0.444,0.148,12,409,152,6.517
63.71,2.7421,0.487,2.04,0.716,1.0,0.0121,0.261,0.602,6,384,417,5.174
61.96,2.7825,0.89,1.06,2.001,1.0,0.0046,0.474,0.15,24,166,388,6.866
61.21,2.7894,1.204,0.743,2.202,1.0,0.0053,0.489,0.615,22,304,116,7.968
60.55,2.9195,0.694,1.443,0.918,1.0,0.0088,0.677,0.236,8,335,219,6.52
63.25,2.9768,0.49,2.148,0.751,1.0,0.0113,0.975,0.109,18,378,37,4.007
76.16,3.0344,2.155,0.557,8.932,1.0,0.0043,0.314,0.478,31,357,95,4.001
72.06,3.0971,0.66,1.586,0.917,1.0,0.0116,0.621,0.197,9,158,290,8.513
52.03,3.1289,0.69,1.429,1.001,1.0,0.0068,0.433,0.506,3,244,411,5.396
121.01,3.1846,0.651,1.532,1.332,1.0,0.0101,0.968,0.031,14,100,311,8.85
40.45,3.2511,0.458,2.104,0.739,1.0,0.0068,0.772,0.814,27,384,219,1.133
59.5,3.282,0.488,2.185,0.598,1.0,0.015,0.99,0.614,28,188,273,3.249
72.54,3.3435,0.484,2.041,0.826,1.0,0.0112,0.46,0.625,9,409,478,3.501
35.99,3.3584,29.264,0.042,42.196,1.0,0.0005,0.888,0.974,31,271,216,4.114
80.0,3.36,0.762,1.199,1.623,1.0,0.0085,0.622,0.523,5,272,230,8.634
70.0,3.4353,0.486,2.182,0.783,1.0,0.0122,0.602,0.207,25,302,24,7.194
58.57,3.5794,0.507,2.151,0.757,1.0,0.0103,0.869,0.669,0,80,25,3.778
64.34,3.592,0.613,1.636,1.125,1.0,0.0085,0.772,0.445,27,244,56,5.372
78.03,3.6108,0.537,1.675,1.25,1.0,0.0099,0.535,0.112,14,319,238,8.467
58.71,4.0907,2.254,0.399,4.875,1.0,0.0028,0.895,0.259,4,424,458,6.252
54.68,4.0958,1.55,0.578,2.76,1.0,0.0035,0.306,0.615,11,276,142,4.945
61.08,4.1009,2.471,0.399,5.45,1.0,0.0031,0.834,0.694,30,181,436,6.489
53.68,4.1107,0.385,2.763,0.617,1.0,0.0104,0.543,0.96,11,196,394,1.891
56.87,4.2019,1.406,0.618,2.066,1.0,0.0042,0.546,0.776,16,388,415,6.403
56.34,4.2448,0.54,1.883,0.645,1.0,0.0102,0.321,0.502,23,120,44,6.543
61.26,4.262,0.367,3.147,0.527,1.0,0.0139,0.506,0.417,9,295,115,3.208
70.76,4.3671,0.612,1.585,1.105,1.0,0.0087,0.564,0.34,3,302,337,6.926
62.21,4.4105,0.482,2.011,0.822,1.0,0.0095,0.764,0.052,10,249,298,4.819
100.85,4.5093,1.465,0.61,3.149,1.0,0.0061,0.871,0.859,1,350,100,8.136
57.11,4.5262,0.447,2.23,0.716,1.0,0.0093,0.47,0.474,11,157,108,3.867
48.56,4.641,0.309,3.193,0.455,1.0,0.0118,0.066,0.222,15,198,464,6.552
63.03,5.0174,0.618,1.604,0.633,1.0,0.0111,0.323,0.397,13,361,9,6.314
64.77,5.3556,0.975,0.914,1.563,1.0,0.0052,0.127,0.726,27,414,278,4.638
93.02,5.5769,0.603,1.588,1.049,1.0,0.011,0.558,0.837,26,356,199,5.644
79.86,5.8945,2.372,0.381,5.004,1.0,0.0037,0.596,0.774,3,325,138,8.421
77.58,6.0724,1.819,0.488,4.251,1.0,0.0039,0.19,0.637,14,423,116,7.419
61.06,6.1717,0.591,1.687,0.919,1.0,0.0075,0.504,0.277,18,118,347,7.111
70.47,6.1988,0.495,2.295,0.605,1.0,0.0146,0.35,0.626,29,178,107,5.878
53.2,6.2478,0.642,1.445,0.989,1.0,0.0055,0.17,0.178,21,129,489,8.351
50.22,6.474,0.773,1.174,1.113,1.0,0.0046,0.693,0.393,13,278,153,3.755
92.81,6.6004,0.595,1.574,1.186,1.0,0.0099,0.744,0.611,27,215,378,5.999
72.59,6.8191,0.559,1.976,0.81,1.0,0.0102,0.678,0.556,3,125,85,5.336
66.1,6.9267,0.499,1.796,0.988,1.0,0.0074,0.744,0.681,15,281,449,1.935
53.78,6.9346,1.056,0.864,1.502,1.0,0.0038,0.825,0.617,29,185,142,3.355
55.03,7.1434,1.024,0.895,1.602,1.0,0.0039,0.239,0.849,6,396,177,2.346
70.84,7.2005,0.983,0.939,1.335,1.0,0.0059,0.355,0.579,7,202,90,7.579
117.37,7.435,0.737,1.248,1.723,1.0,0.0061,0.958,0.024,15,25,255,6.663
98.39,7.472,0.574,1.88,0.933,1.0,0.0108,0.663,0.102,5,39,173,7.349
82.99,7.6909,0.743,1.243,1.436,1.0,0.0072,0.955,0.932,11,98,417,3.45
78.82,7.7019,0.543,1.974,0.622,1.0,0.0129,0.4,0.636,26,170,69,5.665
90.68,7.7937,0.869,1.156,1.76,1.0,0.0059,0.693,0.111,22,197,305,8.942
181.46,7.9663,1.161,0.937,2.187,1.0,0.0093,0.914,0.833,18,71,35,8.037
104.97,8.0279,1.596,0.624,4.059,1.0,0.0027,0.976,0.217,7,78,249,6.364
123.37,8.1196,6.061,0.216,24.404,1.0,0.0033,0.504,0.724,31,401,206,8.421
62.42,8.1624,0.433,2.296,0.529,1.0,0.0104,0.077,0.403,29,289,234,6.305
106.03,8.3223,0.558,1.615,1.356,1.0,0.0098,0.781,0.118,15,218,321,7.141
73.71,8.3617,0.573,1.747,0.832,1.0,0.0092,0.434,0.845,20,220,247,3.915
72.92,8.8557,15.641,0.063,29.864,1.0,0.0007,0.916,0.912,16,364,256,8.677
77.89,8.8644,1.025,0.895,1.505,1.0,0.0054,0.275,0.819,20,358,275,4.948
54.3,9.061,0.396,2.719,0.442,1.0,0.0113,0.463,0.12,30,199,194,3.935
87.23,9.3686,1.43,0.643,3.2,1.0,0.0041,0.882,0.087,17,416,128,6.224
102.88,9.9594,1.088,0.806,2.448,1.0,0.006,0.887,0.894,21,224,323,4.162
113.8,9.981,0.588,1.58,1.247,1.0,0.0105,0.683,0.69,21,192,244,5.415
127.0,10.1163,0.553,2.057,1.072,1.0,0.0135,0.789,0.173,22,119,420,8.393
90.94,10.2018,0.61,1.493,0.661,1.0,0.0116,0.266,0.373,13,406,451,7.893
49.29,10.4529,0.398,2.476,0.655,1.0,0.0067,0.643,0.696,0,153,215,1.182
60.67,10.6737,0.652,1.466,0.978,1.0,0.0054,0.218,0.796,3,376,155,2.748
113.46,10.8023,0.55,1.977,0.914,1.0,0.0132,0.669,0.449,12,143,51,8.147
95.57,10.9685,0.521,1.949,0.746,1.0,0.0113,0.38,0.841,11,102,143,4.649
107.57,10.9908,0.778,1.213,1.566,1.0,0.008,0.849,0.924,28,258,95,5.398
79.4,11.0653,1.385,0.699,2.833,1.0,0.0034,0.546,0.284,30,81,423,8.704
86.88,11.2539,0.91,1.061,1.644,1.0,0.0044,0.84,0.053,7,202,318,6.137
146.64,11.2545,0.818,1.19,1.45,1.0,0.0084,0.974,0.206,16,446,380,8.548
83.3,11.2548,0.541,1.97,0.672,1.0,0.0116,0.578,0.985,30,114,79,3.858
73.04,11.402,0.585,1.642,0.83,1.0,0.007,0.14,0.454,30,344,114,5.895
53.85,11.62,0.268,4.076,0.338,1.0,0.0131,0.492,0.788,21,176,140,1.122
105.03,12.5105,0.532,1.978,0.847,1.0,0.0117,0.955,0.717,26,256,123,4.121
146.17,12.7488,0.733,1.429,1.593,1.0,0.0093,0.934,0.623,22,116,369,7.252
132.27,12.7661,0.749,1.177,1.696,1.0,0.0092,0.444,0.597,15,264,455,6.946
151.85,12.922,0.568,2.106,1.45,1.0,0.0131,0.84,0.28,7,200,118,8.585
141.99,13.6938,1.515,0.707,4.058,1.0,0.0057,0.856,0.459,14,139,485,8.868
59.06,14.2465,0.89,1.057,1.347,1.0,0.0036,0.741,0.345,20,140,139,3.623
75.47,14.3444,0.358,2.972,0.505,1.0,0.0114,0.589,0.793,25,374,373,1.599
79.25,14.8285,0.463,2.096,0.895,1.0,0.0079,0.86,0.004,15,110,159,4.168
113.2,15.292,0.569,1.76,0.942,1.0,0.0101,0.544,0.541,3,340,59,6.582
108.25,15.491,0.557,1.766,0.817,1.0,0.011,0.858,0.945,29,264,345,3.439
117.87,15.6433,4.629,0.211,15.295,1.0,0.0027,0.918,0.935,28,385,201,8.729
150.41,16.0715,0.496,2.143,1.128,1.0,0.0137,0.945,0.045,22,335,102,7.908
115.6,16.9379,0.712,1.58,1.183,1.0,0.0053,0.565,0.292,4,21,143,6.737
79.68,17.5628,0.315,3.096,0.625,1.0,0.0108,0.72,0.549,21,289,369,1.552
126.5,18.0302,0.505,1.92,1.022,1.0,0.0113,0.493,0.424,21,181,331,6.633
123.18,18.4831,2.5,0.367,4.683,1.0,0.0031,0.969,0.842,18,266,26,7.375
130.71,18.7924,0.771,1.221,1.905,1.0,0.007,0.788,0.067,26,388,254,8.34
81.86,19.1861,1.906,0.517,3.867,1.0,0.0023,0.781,0.13,20,147,478,6.501
110.51,20.7465,0.432,2.373,0.76,1.0,0.0112,0.801,0.369,1,409,51,3.531
88.71,21.1849,1.379,0.64,2.077,1.0,0.0037,0.145,0.421,30,430,304,7.608
188.87,21.2885,0.758,1.405,1.587,1.0,0.0123,0.662,0.747,0,25,146,7.271
83.01,22.1052,0.988,0.925,1.219,1.0,0.0051,0.041,0.589,13,266,123,7.383
132.05,23.3495,0.638,1.342,1.453,1.0,0.0079,0.9,0.504,21,262,316,3.84
105.79,23.695,0.974,0.94,1.37,1.0,0.0054,0.359,0.354,13,408,337,8.881
124.3,23.8635,0.523,1.951,0.947,1.0,0.0102,0.371,0.34,25,357,365,7.408
93.75,24.1087,0.879,1.126,1.333,1.0,0.0046,0.836,0.51,9,69,26,5.5
47.9,24.9024,0.444,2.137,0.759,1.0,0.0043,0.212,0.756,20,292,45,1.108
100.02,26.1364,0.508,1.989,0.532,1.0,0.0119,0.259,0.994,29,198,161,3.037
168.39,26.3287,0.668,1.53,1.177,1.0,0.0097,0.688,0.273,5,362,65,8.992
87.96,26.351,0.377,2.377,1.032,1.0,0.0076,0.911,0.002,14,417,112,2.076
183.85,27.1839,0.913,1.103,1.903,1.0,0.008,0.772,0.543,29,174,96,8.588
142.23,27.4327,0.926,0.986,2.002,1.0,0.0067,0.476,0.483,0,194,239,7.669
159.07,28.4241,1.444,0.663,2.693,1.0,0.0057,0.77,0.836,16,290,109,7.68
146.99,28.4969,0.54,1.891,0.879,1.0,0.0116,0.459,0.402,5,309,73,8.98
162.07,29.0488,0.529,1.959,0.973,1.0,0.0129,0.818,0.015,27,270,471,7.236
97.24,29.5434,0.772,1.277,1.146,1.0,0.0055,0.806,0.623,17,106,422,4.07
136.72,29.6561,0.539,1.97,0.822,1.0,0.011,0.672,0.464,5,366,68,5.725
201.02,29.7373,0.737,1.592,1.377,1.0,0.0116,0.883,0.647,13,346,125,8.273
131.13,30.6756,0.625,1.469,1.216,1.0,0.0078,0.624,0.544,15,187,162,4.672
134.94,30.9172,0.589,1.77,0.97,1.0,0.0099,0.852,0.534,1,123,396,5.071
135.22,32.1103,0.881,1.149,1.686,1.0,0.007,0.555,0.755,17,101,294,8.014
127.84,36.1084,0.664,1.603,0.699,1.0,0.0114,0.95,0.583,16,440,10,3.651
144.04,37.641,0.827,1.057,1.869,1.0,0.006,0.72,0.217,14,247,97,6.213
91.35,38.0951,0.725,1.313,1.026,1.0,0.0051,0.142,0.385,10,219,86,6.038
139.56,38.4573,0.336,3.182,0.598,1.0,0.014,0.373,0.246,9,405,431,4.661
116.09,40.8667,1.716,0.578,3.529,1.0,0.0029,0.829,0.448,20,108,296,5.799
95.76,41.7253,0.367,2.873,0.44,1.0,0.0118,0.295,0.208,0,99,7,5.588
116.07,42.1916,0.612,1.624,1.134,1.0,0.0062,0.664,0.03,27,78,296,6.414
141.85,43.9224,0.636,1.568,1.21,1.0,0.0072,0.982,0.11,29,335,46,5.054
92.44,44.7002,0.904,1.015,1.563,1.0,0.0038,0.738,0.456,2,327,428,2.216
105.91,44.7442,0.947,0.963,1.299,1.0,0.0047,0.811,0.96,7,174,355,3.044
110.97,45.7947,0.58,1.706,0.757,1.0,0.0075,0.292,0.35,26,166,347,6.381
186.92,48.3313,1.129,0.915,2.518,1.0,0.0054,0.849,0.437,7,233,126,7.759
63.72,50.9556,0.492,1.924,0.761,1.0,0.0042,0.045,0.202,27,178,323,4.214
94.62,52.3941,0.606,1.621,0.804,1.0,0.0063,0.493,0.867,15,33,196,2.729
126.7,52.4362,0.392,2.753,0.62,1.0,0.0117,0.465,0.02,21,137,147,6.844
148.2,55.2058,0.757,1.354,1.29,1.0,0.0065,0.842,0.344,23,180,163,5.263
234.06,56.3994,0.631,1.735,1.053,1.0,0.0135,0.778,0.721,26,102,35,6.757
144.26,63.032,1.25,0.751,1.689,1.0,0.0048,0.547,0.948,13,358,114,5.193
184.61,64.1263,0.663,1.501,1.344,1.0,0.0083,0.971,0.331,3,331,264,5.334
203.62,64.3761,0.585,1.852,1.109,1.0,0.0107,0.771,0.056,25,210,410,7.876
149.75,65.0438,0.804,1.151,1.619,1.0,0.0059,0.708,0.505,2,348,494,3.954
131.6,65.8151,0.981,0.954,1.306,1.0,0.0053,0.543,0.956,13,304,471,3.862
114.65,66.2594,1.006,0.898,1.315,1.0,0.0042,0.328,0.781,18,182,347,3.551
159.65,70.7125,1.411,0.674,2.598,1.0,0.0043,0.579,0.59,25,326,228,5.97
168.08,76.4858,0.934,1.019,1.728,1.0,0.0058,0.474,0.614,21,135,149,5.988
192.5,78.2018,0.571,1.761,1.202,1.0,0.0088,0.669,0.165,11,105,216,7.638
127.74,88.6637,1.137,0.814,1.822,1.0,0.0037,0.73,0.566,21,102,293,3.286
168.37,96.1598,2.101,0.48,4.007,1.0,0.0031,0.878,0.61,6,131,387,6.685
202.98,100.4523,0.583,1.93,1.12,1.0,0.0102,0.759,0.081,17,126,167,8.396
196.91,115.7443,0.678,1.547,1.267,1.0,0.0071,0.745,0.128,27,160,184,6.888
253.89,117.6144,0.636,1.621,1.324,1.0,0.0091,0.955,0.172,14,128,231,6.287
133.41,132.2343,0.906,1.036,1.231,1.0,0.0046,0.131,0.711,29,182,280,4.369
199.05,147.1354,1.682,0.586,3.476,1.0,0.0034,0.705,0.164,30,348,374,8.063
224.23,158.9953,1.136,0.861,3.034,1.0,0.0055,0.534,0.448,24,234,417,5.6
88.16,159.0841,0.294,3.302,0.868,1.0,0.0057,0.026,0.002,9,402,393,8.072
156.46,164.1846,0.595,1.756,0.911,1.0,0.006,0.534,0.023,4,141,131,6.523
155.19,190.8966,0.887,1.105,1.576,1.0,0.0036,0.802,0.046,23,111,65,4.905
249.83,211.151,0.589,1.955,0.97,1.0,0.0094,0.726,0.105,20,190,67,7.015
177.48,213.5657,1.419,0.638,1.961,1.0,0.0038,0.044,0.482,6,170,394,8.892
325.38,229.7182,0.504,2.28,1.099,1.0,0.0122,0.58,0.133,24,276,197,7.059
236.13,240.8972,1.518,0.647,3.267,1.0,0.0039,0.502,0.265,0,209,202,8.495
250.97,288.9595,1.394,0.7,2.804,1.0,0.0041,0.598,0.313,11,132,433,7.327
285.19,421.3249,1.181,0.894,2.353,1.0,0.0041,0.939,0.483,23,92,65,5.723
