usd_gain,reward,PL_ratio,hold_ratio,PL_count_mean,lin_regression_slope,StopLoss,typeMA,MA_period,ATR_period,ATR_multi
-763.71,-61216.2277,0.605,0.437,1.431,1.0,0.013,4,3,229,0.2
-569.44,-34793.347,0.522,0.365,1.81,1.0,0.0059,13,20,25,0.01
-578.34,-23253.8025,0.414,0.292,2.2,1.0,0.0137,12,13,406,0.13
-645.68,-20318.0558,0.796,0.84,0.974,1.0,0.0011,16,93,210,0.28
-611.44,-16364.5636,0.896,0.907,0.871,1.0,0.001,8,71,209,0.49
-485.22,-15974.4024,0.449,0.314,2.126,1.0,0.0089,6,13,81,0.21
-490.7,-15259.7478,0.431,0.315,2.176,1.0,0.0069,20,17,218,0.31
-455.76,-14947.7716,0.437,0.335,2.169,1.0,0.0047,3,16,440,0.28
-522.65,-14741.6951,0.387,0.277,2.3,1.0,0.0114,7,36,451,0.25
-546.97,-14354.0408,0.933,1.318,0.848,1.0,0.001,13,214,72,0.01
-506.78,-12987.9135,0.339,0.241,2.68,1.0,0.013,3,33,24,0.27
-489.05,-12726.7356,0.409,0.304,2.218,1.0,0.0078,3,21,225,0.37
-547.03,-12256.7974,1.086,1.153,0.738,1.0,0.0009,15,24,423,0.43
-484.73,-12228.2851,0.491,0.488,1.79,1.0,0.0022,3,30,22,0.53
-472.21,-10689.4852,0.281,0.187,3.193,1.0,0.013,26,62,185,0.0
-483.56,-9518.7145,0.289,0.2,3.048,1.0,0.0147,8,151,385,0.06
-417.17,-9430.8332,0.358,0.295,2.627,1.0,0.0054,20,37,417,0.29
-449.19,-8774.7943,0.571,0.779,1.46,1.0,0.0018,30,91,323,0.29
-470.4,-8741.9643,0.311,0.244,2.84,1.0,0.0094,19,138,451,0.05
-439.1,-8674.7959,0.268,0.189,3.303,1.0,0.0147,10,53,129,0.12
-410.25,-8672.8911,0.351,0.217,2.666,1.0,0.0122,24,192,381,0.14
-499.27,-7922.1758,1.066,1.364,0.734,1.0,0.0011,27,83,376,0.37
-511.83,-7319.4389,3.001,2.167,0.264,1.0,0.0004,6,58,259,0.53
-464.8,-6938.3207,0.96,1.083,0.806,1.0,0.0012,19,106,498,0.59
-464.25,-6462.5884,2.453,2.843,0.324,1.0,0.0005,7,287,414,0.27
-437.66,-6266.7147,0.37,0.309,2.317,1.0,0.0103,16,110,38,0.48
-344.37,-6170.4966,0.669,1.294,1.294,1.0,0.0015,21,93,78,0.02
-361.22,-5859.4282,0.384,0.284,2.44,1.0,0.0095,2,22,337,0.46
-373.0,-5698.4582,0.275,0.203,3.367,1.0,0.0131,28,77,349,0.21
-293.82,-5368.8837,0.572,0.456,1.657,1.0,0.0068,6,6,441,0.65
-296.83,-5319.5825,0.275,0.297,3.557,1.0,0.0056,14,49,286,0.08
-369.69,-5183.9476,0.936,1.459,0.874,1.0,0.0012,4,133,330,0.2
-435.22,-5095.345,1.287,1.418,0.601,1.0,0.001,13,154,336,0.72
-477.99,-4712.9189,1.842,1.544,0.41,1.0,0.0006,26,31,16,1.39
-335.64,-4674.0783,0.46,0.379,2.088,1.0,0.0095,23,15,416,0.7
-342.91,-4085.5911,0.517,0.579,1.636,1.0,0.0026,16,133,481,0.63
-307.64,-4076.7945,0.363,0.581,2.368,1.0,0.0033,13,282,432,0.18
-324.13,-3834.2621,0.427,0.337,2.204,1.0,0.014,22,23,153,0.67
-287.51,-3553.9818,0.239,0.215,3.993,1.0,0.0095,29,152,175,0.13
-403.97,-3550.4873,2.315,2.599,0.347,1.0,0.0007,22,139,453,0.69
-442.68,-2939.9204,3.007,2.687,0.259,1.0,0.0006,30,103,97,1.63
-406.04,-2925.1518,5.713,5.041,0.142,1.0,0.0003,27,320,367,0.43
-372.95,-2579.3971,2.031,2.561,0.411,1.0,0.0009,4,190,121,0.88
-287.64,-2562.6387,0.244,0.199,3.83,1.0,0.0143,19,306,496,0.11
-381.4,-2554.034,2.088,2.74,0.381,1.0,0.0009,17,114,41,0.76
-367.68,-2548.8273,2.516,2.835,0.318,1.0,0.0007,7,275,197,0.94
-277.32,-2433.4648,0.857,1.613,0.972,1.0,0.0015,2,232,175,0.37
-367.52,-2386.2243,2.648,2.701,0.304,1.0,0.0007,4,122,291,1.1
-290.9,-2273.4056,0.828,0.977,1.002,1.0,0.0016,2,44,133,1.13
-321.53,-2263.7085,0.973,1.451,0.81,1.0,0.0016,13,346,193,0.66
-307.15,-2135.0762,0.62,0.915,1.31,1.0,0.0025,8,345,490,0.72
-250.86,-2077.639,0.42,0.377,2.184,1.0,0.0112,25,23,472,0.86
-253.5,-2069.586,0.255,0.249,3.555,1.0,0.0103,18,94,432,0.29
-211.3,-2038.1859,0.259,0.243,3.875,1.0,0.0092,15,46,481,0.24
-233.02,-2036.9644,0.282,0.366,3.284,1.0,0.0058,8,340,3,0.37
-210.06,-2029.5194,0.33,0.443,2.874,1.0,0.004,28,124,81,0.36
-269.72,-1960.2718,1.303,2.04,0.627,1.0,0.0011,24,310,440,0.63
-376.78,-1954.6983,3.195,2.995,0.236,1.0,0.0006,2,87,463,1.62
-215.11,-1892.6843,0.298,0.269,3.162,1.0,0.0075,26,78,297,0.33
-235.38,-1846.0294,0.488,0.476,1.872,1.0,0.0058,22,17,482,1.03
-212.15,-1747.9917,0.213,0.234,4.492,1.0,0.0111,6,136,360,0.14
-211.19,-1671.0294,0.255,0.244,3.682,1.0,0.0085,22,107,120,0.27
-220.58,-1652.6143,0.621,1.247,1.398,1.0,0.0021,9,150,1,0.18
-193.39,-1608.8135,0.239,0.24,4.064,1.0,0.009,26,131,38,0.24
-252.2,-1567.4797,0.319,0.254,2.939,1.0,0.0123,7,144,325,0.67
-221.66,-1556.1292,0.259,0.262,3.62,1.0,0.0097,19,307,403,0.23
-189.46,-1532.6952,0.32,0.255,3.207,1.0,0.011,24,290,266,0.1
-269.33,-1492.049,0.3,0.273,3.082,1.0,0.0132,17,79,315,0.42
-319.68,-1428.5514,3.97,4.693,0.211,1.0,0.0006,23,288,214,1.11
-162.37,-1424.094,0.221,0.314,4.539,1.0,0.0069,5,318,392,0.11
-338.58,-1401.7615,2.375,2.936,0.337,1.0,0.001,5,322,258,1.66
-312.67,-1392.5072,3.01,3.018,0.274,1.0,0.0007,22,121,30,1.88
-235.09,-1380.7779,0.443,0.409,2.073,1.0,0.0091,17,27,335,0.91
-178.42,-1278.1514,0.209,0.198,4.81,1.0,0.0138,30,167,422,0.23
-209.55,-1225.7726,0.221,0.25,4.283,1.0,0.0138,17,158,353,0.09
-304.98,-1215.9053,4.72,4.199,0.178,1.0,0.0005,5,297,121,1.68
-230.33,-1188.5507,1.0,2.275,0.806,1.0,0.0016,14,268,282,0.4
-260.27,-1171.144,0.55,0.549,1.563,1.0,0.0082,19,59,228,1.56
-270.46,-1100.1062,4.9,3.594,0.169,1.0,0.0004,2,115,413,1.46
-189.92,-1086.9687,0.315,0.261,3.022,1.0,0.0132,26,75,329,0.59
-315.41,-1024.0972,3.866,4.133,0.211,1.0,0.0007,28,265,216,2.12
-261.67,-1010.944,0.321,0.27,2.724,1.0,0.014,8,300,230,0.99
-202.65,-943.704,0.431,0.44,2.016,1.0,0.0061,8,121,494,1.08
-346.69,-923.3484,9.13,3.102,0.082,1.0,0.0002,6,63,285,2.11
-159.77,-909.3669,0.541,1.248,1.642,1.0,0.0024,22,311,266,0.21
-281.62,-886.3003,1.922,2.518,0.427,1.0,0.0013,5,309,81,2.05
-223.33,-852.6851,0.865,1.035,0.954,1.0,0.002,16,130,307,1.91
-168.89,-844.6616,0.25,0.266,3.894,1.0,0.0105,4,139,231,0.48
-236.96,-828.659,1.273,1.632,0.64,1.0,0.0016,23,95,427,1.57
-170.29,-792.8957,0.327,0.304,2.914,1.0,0.0107,29,92,422,0.79
-173.89,-791.0331,0.285,0.281,3.38,1.0,0.0095,6,111,33,0.56
-275.4,-780.868,4.255,4.902,0.196,1.0,0.0007,18,273,196,1.82
-240.31,-778.5933,3.042,3.019,0.276,1.0,0.0007,28,149,9,2.18
-240.07,-778.288,3.114,2.374,0.264,1.0,0.0005,18,32,392,2.13
-282.04,-759.6341,7.056,3.947,0.116,1.0,0.0003,5,118,11,2.39
-277.12,-738.6692,3.904,5.133,0.213,1.0,0.0008,1,337,99,1.96
-185.0,-735.5505,0.765,1.55,1.105,1.0,0.0022,27,293,347,0.51
-167.33,-712.8231,0.485,0.697,1.875,1.0,0.0034,3,144,399,0.93
-170.65,-712.3493,0.259,0.255,3.727,1.0,0.0139,22,135,269,0.62
-121.03,-704.4987,0.228,0.191,4.651,1.0,0.0117,5,336,304,0.0
-169.31,-696.3795,0.283,0.27,3.415,1.0,0.0112,23,101,469,0.65
-200.14,-681.387,1.361,1.712,0.625,1.0,0.0014,26,113,292,1.55
-104.84,-671.2074,0.307,0.61,3.293,1.0,0.0043,2,250,196,0.02
-155.47,-645.9182,0.219,0.208,4.532,1.0,0.0148,5,257,219,0.62
-150.07,-643.8513,0.37,0.368,2.585,1.0,0.0063,25,64,19,0.89
-178.09,-637.6592,0.572,0.741,1.469,1.0,0.0031,16,309,14,1.2
-183.97,-636.9183,0.511,0.546,1.744,1.0,0.0056,8,84,98,1.62
-206.8,-583.572,0.336,0.295,2.603,1.0,0.0146,19,297,338,0.95
-281.11,-579.0393,11.182,6.469,0.074,1.0,0.0003,17,168,279,2.6
-158.55,-571.3326,0.288,0.3,3.12,1.0,0.0091,13,330,467,0.56
-102.6,-564.8736,0.227,0.292,4.874,1.0,0.0093,0,128,485,0.04
-188.79,-561.5978,1.417,1.863,0.603,1.0,0.0014,21,55,147,1.75
-249.64,-560.3892,3.577,4.475,0.236,1.0,0.0009,27,266,100,2.36
-134.82,-558.1874,0.542,1.871,1.563,1.0,0.0026,11,336,333,0.23
-122.64,-550.8728,0.216,0.216,4.515,1.0,0.0111,5,155,396,0.43
-268.26,-539.0886,10.069,5.606,0.082,1.0,0.0003,23,180,406,2.56
-127.66,-537.261,0.252,0.272,3.995,1.0,0.0118,17,128,380,0.06
-134.02,-526.8646,0.243,0.247,4.015,1.0,0.012,23,126,87,0.49
-201.46,-515.1372,0.518,0.54,1.619,1.0,0.0104,16,120,143,2.09
-155.77,-509.1981,0.338,0.414,2.737,1.0,0.0068,6,121,78,0.87
-99.78,-508.7882,0.212,0.242,5.129,1.0,0.0097,20,276,232,0.09
-185.08,-505.0485,0.432,0.442,1.992,1.0,0.0107,13,145,195,1.54
-189.59,-496.3215,1.099,1.694,0.761,1.0,0.002,28,295,112,1.48
-110.98,-477.7171,0.213,0.347,4.656,1.0,0.0088,23,285,322,0.16
-200.49,-476.0744,0.555,0.763,1.57,1.0,0.0058,16,100,408,2.62
-158.83,-471.6501,0.37,0.336,2.497,1.0,0.0093,7,154,44,1.19
-137.63,-460.5689,0.542,0.751,1.689,1.0,0.0031,29,134,172,1.13
-108.49,-454.2691,0.197,0.206,5.242,1.0,0.0137,21,125,361,0.2
-109.48,-440.4837,0.391,1.139,2.23,1.0,0.0034,11,254,192,0.16
-218.11,-436.4627,2.788,3.387,0.297,1.0,0.001,27,112,117,2.97
-194.02,-423.361,1.121,1.54,0.755,1.0,0.0021,18,97,116,2.65
-112.16,-413.8242,0.228,0.272,4.504,1.0,0.0102,22,209,255,0.37
-168.91,-411.9175,0.386,0.413,2.407,1.0,0.0114,6,88,383,1.44
-208.01,-407.1989,8.014,7.065,0.109,1.0,0.0004,21,227,179,2.15
-185.68,-404.6517,1.86,2.693,0.458,1.0,0.0014,12,268,222,1.59
-126.41,-399.1378,0.473,0.603,1.907,1.0,0.0037,10,76,479,1.05
-86.21,-395.7983,0.278,0.617,3.469,1.0,0.0046,30,328,429,0.1
-96.74,-390.838,0.253,0.353,3.841,1.0,0.0069,21,92,138,0.32
-199.79,-389.5452,3.566,4.075,0.238,1.0,0.0008,30,184,171,2.71
-172.04,-387.7664,0.962,1.314,0.88,1.0,0.0023,1,97,257,1.96
-135.64,-379.1702,0.472,0.522,1.895,1.0,0.0047,8,174,47,1.31
-152.77,-378.8497,0.723,0.972,1.187,1.0,0.0027,22,90,82,1.84
-104.01,-369.7113,0.216,0.203,4.891,1.0,0.0144,26,197,102,0.39
-189.71,-367.2464,1.991,3.031,0.421,1.0,0.0014,10,324,36,2.03
-197.09,-364.4729,0.549,0.596,1.589,1.0,0.0147,16,121,150,2.69
-124.52,-339.2823,0.341,0.439,2.653,1.0,0.0065,13,334,161,0.81
-107.91,-330.5755,0.213,0.251,4.672,1.0,0.0122,12,235,308,0.43
-136.36,-310.3803,0.401,0.445,2.218,1.0,0.0067,16,347,63,1.22
-186.97,-308.2624,0.567,0.764,1.536,1.0,0.006,8,60,357,2.5
-166.05,-304.8139,1.802,3.69,0.461,1.0,0.0015,14,348,260,1.4
-82.8,-300.1389,0.249,0.386,4.111,1.0,0.0064,25,186,229,0.29
-178.55,-297.2292,0.587,0.852,1.473,1.0,0.0053,13,65,226,2.75
-130.01,-296.7001,0.424,0.409,2.087,1.0,0.0092,16,209,349,1.21
-198.62,-288.4154,1.842,2.647,0.438,1.0,0.0018,9,133,251,3.0
-134.02,-287.8713,0.455,0.539,2.017,1.0,0.0144,23,26,411,1.93
-173.36,-284.2643,4.783,3.813,0.17,1.0,0.0005,7,154,397,2.54
-113.98,-282.1926,0.638,1.168,1.421,1.0,0.0028,30,294,388,0.83
-109.7,-281.6187,0.337,0.36,2.836,1.0,0.0077,12,106,242,0.83
-144.35,-279.3953,0.437,0.596,1.953,1.0,0.0087,2,18,282,1.91
-175.84,-276.5046,2.611,3.59,0.324,1.0,0.0012,30,319,50,2.71
-136.84,-270.6132,0.664,0.849,1.304,1.0,0.0033,19,68,25,2.39
-118.22,-267.4428,0.257,0.338,3.834,1.0,0.0106,20,336,188,1.0
-157.55,-263.6358,0.45,0.447,1.923,1.0,0.0084,8,256,154,1.92
-111.38,-259.8463,0.401,0.374,2.365,1.0,0.0122,26,63,207,1.23
-193.11,-258.7879,3.518,4.481,0.24,1.0,0.001,4,216,48,3.77
-125.42,-258.7486,0.396,0.632,2.336,1.0,0.0056,5,299,55,1.66
-189.4,-258.0713,5.827,6.013,0.143,1.0,0.0006,10,204,269,3.43
-151.3,-255.4647,0.498,0.538,1.786,1.0,0.0145,7,62,128,2.21
-67.5,-254.1425,0.253,0.481,4.026,1.0,0.0061,0,144,331,0.04
-133.72,-253.1849,0.517,0.53,1.737,1.0,0.0112,8,77,300,1.84
-120.0,-253.0096,0.447,0.502,2.088,1.0,0.0135,28,38,368,1.73
-131.56,-247.7292,1.129,1.35,0.756,1.0,0.0016,16,138,157,2.44
-123.97,-245.2345,0.438,0.424,2.032,1.0,0.0113,13,142,95,1.52
-184.49,-239.4185,5.731,6.675,0.149,1.0,0.0007,6,276,411,3.39
-158.84,-236.5514,1.44,2.201,0.57,1.0,0.0019,26,151,450,2.76
-68.62,-228.9301,0.328,0.423,3.066,1.0,0.0045,31,18,462,0.39
-211.37,-228.7421,0.567,0.769,1.332,1.0,0.0069,13,64,192,3.2
-100.54,-224.71,0.343,0.423,2.63,1.0,0.0068,12,110,410,0.92
-140.35,-223.6356,0.48,0.759,1.707,1.0,0.0049,24,101,404,1.6
-206.68,-214.8553,17.235,5.605,0.049,1.0,0.0002,9,132,385,3.55
-158.12,-212.9858,1.567,2.68,0.526,1.0,0.002,15,148,284,2.46
-180.31,-209.4245,0.485,0.64,1.64,1.0,0.0105,30,21,386,2.68
-73.79,-196.5858,0.207,0.205,5.213,1.0,0.0145,29,273,171,0.35
-153.02,-192.0227,2.995,3.71,0.287,1.0,0.0009,27,68,406,3.44
-113.34,-191.2391,0.667,0.843,1.338,1.0,0.0032,8,94,456,2.07
-148.78,-186.6544,1.673,2.606,0.508,1.0,0.0019,3,305,267,2.75
-142.49,-174.4212,3.441,4.95,0.257,1.0,0.001,11,151,88,3.11
-199.59,-172.7703,16.92,5.307,0.051,1.0,0.0002,29,266,294,3.73
-162.49,-172.4744,2.303,3.845,0.363,1.0,0.0017,4,339,415,3.15
-98.7,-171.1901,0.435,0.535,2.147,1.0,0.0128,10,39,468,1.89
-118.83,-170.0072,1.495,1.827,0.549,1.0,0.0015,19,204,297,2.24
-98.74,-168.6521,0.704,0.917,1.224,1.0,0.0028,19,225,57,1.47
-116.04,-163.5882,0.283,0.311,3.324,1.0,0.0134,9,181,456,1.02
-91.33,-162.0492,0.512,0.544,1.733,1.0,0.0048,8,137,24,1.52
-117.18,-159.5721,0.496,0.523,1.903,1.0,0.0137,9,41,216,2.33
-76.67,-158.8915,0.357,0.393,2.784,1.0,0.0078,24,234,234,0.85
-135.07,-158.6771,0.659,1.01,1.332,1.0,0.0036,13,50,176,2.81
-99.22,-153.8076,0.479,0.505,1.873,1.0,0.0097,4,33,4,2.1
-136.56,-153.0048,3.678,4.624,0.237,1.0,0.0009,1,134,466,3.38
-92.56,-146.3407,0.224,0.265,4.591,1.0,0.0145,9,213,372,0.75
-112.09,-146.0636,0.539,0.814,1.68,1.0,0.0049,12,32,199,2.69
-173.75,-145.1471,2.469,2.781,0.309,1.0,0.001,16,120,447,3.88
-73.05,-143.3042,0.208,0.248,4.742,1.0,0.012,10,258,124,0.6
-77.14,-134.9698,0.225,0.276,4.392,1.0,0.012,23,283,306,0.53
-124.88,-134.478,1.432,2.248,0.582,1.0,0.0021,20,267,403,2.67
-103.78,-130.4619,1.757,2.866,0.492,1.0,0.0015,11,182,148,1.63
-83.77,-127.3937,0.449,0.586,2.086,1.0,0.0076,21,6,493,1.55
-115.39,-122.6886,0.503,0.63,1.755,1.0,0.0115,5,19,347,2.46
-83.4,-119.9055,0.37,0.414,2.654,1.0,0.009,17,87,134,0.99
-79.01,-118.1003,0.775,1.379,1.158,1.0,0.0025,2,265,29,1.18
-152.13,-116.4369,0.588,0.74,1.448,1.0,0.0127,19,61,269,3.37
-133.19,-116.2601,5.694,6.414,0.153,1.0,0.0007,1,196,326,4.03
-162.97,-114.882,12.364,6.339,0.067,1.0,0.0003,25,162,438,4.24
-154.66,-112.5501,12.14,10.796,0.07,1.0,0.0004,14,250,488,4.77
-51.56,-108.8907,0.218,0.267,4.983,1.0,0.0098,20,289,31,0.36
-75.49,-108.6703,0.351,0.355,2.821,1.0,0.0124,30,108,192,1.33
-96.92,-108.0124,0.856,1.401,1.008,1.0,0.003,25,246,265,1.77
-89.21,-104.0423,0.564,0.707,1.688,1.0,0.0057,9,6,446,2.02
-96.37,-102.9881,0.471,0.592,1.901,1.0,0.0118,1,32,472,2.47
-140.35,-102.9574,5.996,6.782,0.141,1.0,0.0007,10,210,153,4.89
-102.1,-101.8392,0.358,0.484,2.617,1.0,0.011,5,283,456,2.36
-946.82,-100.0983,0.627,0.457,1.265,1.0,0.0137,26,2,321,0.02
-144.82,-98.2684,5.163,4.84,0.159,1.0,0.0006,25,69,370,4.15
-56.9,-94.6718,0.556,1.011,1.655,1.0,0.0027,1,175,383,0.59
-77.3,-92.3288,0.328,0.441,2.909,1.0,0.0082,5,275,29,1.75
-65.19,-88.0643,0.227,0.269,4.402,1.0,0.0143,2,337,204,0.74
-100.92,-87.627,0.522,0.671,1.723,1.0,0.0082,30,28,103,2.7
-84.56,-84.7391,0.533,0.798,1.754,1.0,0.0042,18,9,67,2.45
-96.17,-84.4682,0.441,0.606,2.22,1.0,0.0136,18,86,353,3.09
-62.16,-83.0929,0.33,0.31,3.099,1.0,0.0118,29,148,163,1.03
-80.38,-80.868,0.413,0.501,2.314,1.0,0.0122,27,70,92,2.34
-57.91,-77.0605,0.316,0.545,2.993,1.0,0.0063,23,279,158,0.67
-104.36,-76.6773,3.08,2.068,0.263,1.0,0.0004,16,52,41,2.43
-84.32,-74.8467,0.973,1.513,0.901,1.0,0.0028,26,258,129,2.21
-123.49,-74.7235,0.527,0.685,1.673,1.0,0.0118,6,16,277,3.58
-88.74,-74.1219,1.621,2.34,0.517,1.0,0.0015,20,83,393,3.03
-58.15,-74.1216,0.459,0.544,2.157,1.0,0.0085,30,32,347,1.69
-65.04,-72.9554,0.364,0.382,2.693,1.0,0.0123,3,116,405,1.47
-64.19,-72.7008,0.274,0.395,3.534,1.0,0.0098,25,284,428,0.97
-74.76,-72.4966,0.275,0.301,3.743,1.0,0.0147,27,258,441,1.3
-115.65,-65.3437,0.498,0.661,1.615,1.0,0.0145,29,16,380,2.8
-58.65,-64.6555,0.344,0.385,2.893,1.0,0.0091,25,118,352,1.19
-103.07,-64.2626,4.456,6.901,0.202,1.0,0.0011,9,317,480,3.52
-52.46,-64.1983,0.285,0.275,3.622,1.0,0.0135,15,67,418,0.87
-69.6,-61.7327,0.421,0.499,2.248,1.0,0.0081,13,304,200,1.78
-63.65,-57.3883,0.274,0.329,3.675,1.0,0.0125,10,270,45,1.53
-53.45,-56.4279,0.482,0.565,1.931,1.0,0.0072,4,31,252,1.8
-53.54,-56.3395,0.377,0.637,2.493,1.0,0.0056,29,342,449,1.04
-35.95,-55.9622,0.281,0.513,3.465,1.0,0.0054,2,208,457,0.36
-56.5,-55.6734,0.362,0.394,2.64,1.0,0.0091,22,111,368,1.3
-96.34,-55.1023,0.373,0.418,2.463,1.0,0.0149,9,203,406,2.3
-76.84,-54.9061,0.341,0.412,2.945,1.0,0.0139,29,346,16,2.52
-61.94,-53.4835,0.9,1.877,0.96,1.0,0.0026,11,228,236,1.27
-85.05,-52.3282,0.614,1.045,1.465,1.0,0.0047,30,35,350,3.46
-72.38,-50.5128,1.262,2.119,0.674,1.0,0.0023,2,227,196,2.56
-94.42,-49.2581,0.54,0.72,1.761,1.0,0.0113,13,133,470,3.9
-58.94,-48.6306,0.404,0.535,2.363,1.0,0.0102,3,91,400,2.16
-66.0,-45.7942,0.406,0.61,2.302,1.0,0.0077,12,224,470,2.09
-72.22,-44.3254,1.96,3.209,0.442,1.0,0.0017,2,278,238,2.86
-56.75,-44.3192,0.668,1.058,1.325,1.0,0.0033,1,54,205,2.56
-76.86,-43.1718,1.691,2.737,0.496,1.0,0.002,28,241,284,3.5
-82.6,-42.444,0.521,0.617,1.841,1.0,0.0118,7,95,342,3.35
-85.26,-42.2762,1.192,1.774,0.682,1.0,0.0014,28,21,64,2.8
-81.7,-37.9612,0.53,0.675,1.852,1.0,0.0139,8,151,478,3.69
-98.63,-37.4,5.531,5.099,0.152,1.0,0.0006,21,32,338,4.21
-39.49,-37.3922,0.413,0.622,2.235,1.0,0.0046,1,123,493,0.91
-50.15,-36.1924,0.323,0.375,3.162,1.0,0.0101,9,159,110,1.15
-78.83,-35.3396,4.734,6.126,0.181,1.0,0.0009,10,247,80,4.81
-40.68,-34.6828,0.452,0.641,2.167,1.0,0.0048,26,127,247,1.41
-48.05,-34.4494,0.317,0.359,3.167,1.0,0.0128,12,177,478,1.37
-42.56,-34.4011,0.229,0.292,4.796,1.0,0.0142,9,243,491,0.68
-74.75,-33.4237,3.312,6.14,0.265,1.0,0.0014,11,244,295,4.15
-49.51,-33.1162,0.415,0.581,2.315,1.0,0.0096,26,79,321,2.36
-38.9,-32.8694,0.235,0.323,4.206,1.0,0.011,1,281,304,0.7
-79.62,-32.3855,3.291,5.363,0.257,1.0,0.0014,10,296,218,4.94
-31.69,-32.3601,0.304,0.574,3.252,1.0,0.0056,12,299,55,0.46
-49.74,-31.9936,0.519,0.831,1.701,1.0,0.0048,26,257,397,1.63
-81.33,-31.2537,0.565,0.746,1.669,1.0,0.0147,8,115,247,3.86
-89.68,-30.2011,0.526,0.755,1.6,1.0,0.0101,26,23,156,3.7
-44.04,-30.0343,0.424,0.463,2.281,1.0,0.0077,18,103,80,1.51
-49.69,-29.3237,0.382,0.484,2.614,1.0,0.0104,17,130,447,1.52
-52.42,-28.8514,0.346,0.387,2.923,1.0,0.0143,6,208,319,1.77
-68.31,-28.1954,3.888,5.126,0.228,1.0,0.001,22,164,424,4.51
-34.58,-27.6276,0.497,0.591,2.024,1.0,0.0147,30,10,451,1.44
-77.69,-27.1603,2.898,3.667,0.293,1.0,0.001,28,59,277,4.17
-37.8,-26.81,0.313,0.35,3.221,1.0,0.0107,2,150,262,1.22
-43.8,-26.4669,0.293,0.34,3.492,1.0,0.0125,3,349,87,1.54
-486.9,-26.316,2.23,2.503,0.358,1.0,0.0005,30,166,5,0.25
-36.64,-25.7021,0.376,0.525,2.547,1.0,0.0061,5,192,389,1.38
-30.74,-24.3052,0.445,0.826,2.051,1.0,0.0037,30,318,249,0.65
-32.89,-24.1394,0.258,0.289,4.012,1.0,0.0113,1,217,300,0.69
-40.77,-24.1002,0.508,0.523,1.811,1.0,0.0116,13,111,43,2.02
-79.94,-23.4494,0.82,1.583,1.054,1.0,0.0034,16,65,197,4.88
-44.43,-23.333,0.296,0.355,3.351,1.0,0.0139,22,299,442,1.51
-91.1,-23.3004,19.91,13.936,0.041,1.0,0.0003,14,312,283,6.76
-54.67,-22.9455,1.098,1.712,0.79,1.0,0.003,1,196,259,3.0
-100.94,-22.8117,18.494,5.739,0.04,1.0,0.0002,30,184,101,4.9
-48.75,-22.035,0.415,0.621,2.241,1.0,0.0084,5,278,203,2.81
-44.33,-21.211,0.289,0.389,3.497,1.0,0.0137,25,339,28,2.0
-49.14,-20.8327,0.438,0.689,2.109,1.0,0.0082,17,209,162,2.06
-63.44,-20.6596,0.49,0.749,1.731,1.0,0.0094,9,211,453,3.22
-33.22,-20.0535,0.287,0.366,3.563,1.0,0.0105,20,303,470,1.16
-56.23,-19.8322,0.484,0.597,1.972,1.0,0.0127,7,196,246,3.58
-33.93,-19.6763,0.333,0.433,2.95,1.0,0.0089,2,184,293,1.31
-61.96,-19.5488,5.679,8.591,0.162,1.0,0.0009,4,327,406,5.62
-51.26,-18.9434,0.427,0.524,2.33,1.0,0.0124,6,205,279,2.9
-55.35,-18.5477,0.607,0.874,1.508,1.0,0.0045,4,16,293,3.01
-62.86,-18.533,0.622,0.899,1.555,1.0,0.0088,19,117,332,4.58
-45.12,-17.7889,0.37,0.463,2.596,1.0,0.0109,6,271,419,1.99
-42.37,-17.4753,0.372,0.417,2.664,1.0,0.0115,22,222,44,2.2
-43.86,-17.4058,0.396,0.618,2.348,1.0,0.0087,12,298,120,2.38
-77.15,-17.2862,0.61,0.875,1.285,1.0,0.0022,24,6,365,0.71
-36.75,-17.1644,0.528,0.815,1.775,1.0,0.005,6,206,154,1.74
-56.43,-17.0651,0.579,0.859,1.616,1.0,0.0086,16,150,433,4.45
-39.59,-17.0439,0.365,0.568,2.562,1.0,0.0083,18,328,15,1.72
-45.83,-17.0311,1.236,2.043,0.702,1.0,0.0021,28,83,258,3.56
-61.01,-16.9241,8.632,6.609,0.098,1.0,0.0004,29,218,22,4.54
-61.07,-16.5223,0.582,0.817,1.603,1.0,0.0108,8,99,133,3.89
-581.9,-16.5203,0.335,0.224,2.675,1.0,0.0083,20,36,169,0.02
-25.18,-16.5136,0.26,0.329,4.042,1.0,0.0098,22,215,3,0.82
-32.05,-16.4671,0.557,0.872,1.596,1.0,0.0039,12,193,90,1.41
-59.45,-16.1817,9.881,25.417,0.092,1.0,0.0007,31,291,68,2.01
-40.81,-15.6775,0.32,0.448,3.235,1.0,0.0139,10,301,359,2.36
-35.7,-15.44,0.622,1.133,1.417,1.0,0.0039,29,115,421,2.77
-54.74,-15.0769,3.659,6.668,0.237,1.0,0.0013,14,214,63,5.24
-61.51,-15.06,1.103,1.271,0.766,1.0,0.0012,25,4,404,1.92
-30.91,-14.8365,0.33,0.493,3.031,1.0,0.0083,23,221,297,1.44
-41.38,-14.813,1.275,2.177,0.673,1.0,0.0024,28,209,360,3.15
-589.68,-14.5994,0.317,0.215,2.722,1.0,0.0136,20,35,326,0.09
-39.38,-13.6539,0.49,0.827,1.847,1.0,0.0066,12,273,400,2.46
-34.07,-13.0957,0.457,0.576,2.128,1.0,0.0109,29,74,184,2.62
-39.47,-12.8648,0.396,0.506,2.409,1.0,0.0121,30,216,332,2.7
-24.28,-12.7533,0.367,0.488,2.702,1.0,0.0064,29,184,35,1.33
-44.29,-12.5772,0.536,0.618,1.829,1.0,0.015,19,248,397,3.4
-35.88,-12.3109,0.525,0.696,1.694,1.0,0.0064,19,324,221,2.4
-26.24,-12.1838,0.28,0.334,3.595,1.0,0.0112,22,229,497,1.06
-30.83,-12.0086,0.275,0.352,3.798,1.0,0.0138,10,317,29,1.87
-447.84,-11.9482,0.373,0.272,2.435,1.0,0.0074,15,11,289,0.32
-83.47,-11.8926,0.636,1.312,1.262,1.0,0.0061,5,145,10,5.54
-41.84,-11.8212,0.506,0.635,1.771,1.0,0.0086,7,280,87,3.29
-35.5,-10.7459,0.605,1.03,1.607,1.0,0.0048,4,52,263,3.64
-39.88,-10.6572,0.498,0.834,1.788,1.0,0.0085,27,44,392,3.84
-49.36,-10.4275,0.628,1.057,1.628,1.0,0.0074,19,55,282,4.55
-25.09,-10.3992,0.317,0.539,3.055,1.0,0.0074,9,239,213,0.89
-41.71,-10.3821,0.488,0.711,1.743,1.0,0.0104,24,64,449,1.74
-39.35,-10.2158,0.383,0.664,2.744,1.0,0.0133,25,332,336,3.69
-29.94,-9.3535,0.326,0.403,3.036,1.0,0.0132,28,319,112,2.19
-41.92,-9.2345,0.761,1.524,1.102,1.0,0.0031,23,15,338,3.8
-31.11,-9.1193,0.436,0.532,2.246,1.0,0.0108,9,103,130,2.52
-24.15,-8.916,0.837,1.791,1.013,1.0,0.0026,21,287,129,0.96
-30.25,-8.8362,0.474,0.557,2.021,1.0,0.0103,8,218,487,2.64
-75.28,-8.6988,56.172,7.65,0.015,1.0,0.0001,31,56,82,6.22
-24.16,-8.4426,0.44,0.532,2.088,1.0,0.0068,19,271,448,1.53
-56.28,-8.4203,0.634,1.014,1.288,1.0,0.0086,19,59,71,4.47
-39.61,-8.0668,0.6,0.843,1.589,1.0,0.0086,8,130,83,4.07
-211.63,-7.9617,0.321,0.585,2.795,1.0,0.0036,10,155,258,0.21
-34.13,-7.8531,1.229,2.115,0.7,1.0,0.003,22,321,221,3.24
-32.36,-7.5722,0.474,0.678,1.976,1.0,0.0094,15,23,440,3.28
-42.84,-7.441,11.728,13.092,0.072,1.0,0.0005,11,267,238,5.99
-272.47,-7.3514,0.512,0.401,1.863,1.0,0.0076,7,24,103,0.71
-39.78,-6.8737,0.522,0.798,1.721,1.0,0.0095,26,12,401,3.25
-313.22,-6.5991,0.408,0.336,2.246,1.0,0.0186,3,27,417,0.73
-123.14,-6.3355,0.384,1.016,2.475,1.0,0.0032,0,198,381,0.03
-59.42,-6.3178,0.519,0.82,1.495,1.0,0.0086,22,13,436,4.22
-313.57,-6.1905,4.264,3.317,0.181,1.0,0.0005,8,206,477,2.04
-419.86,-6.1288,0.288,0.233,2.866,1.0,0.0169,16,191,454,0.27
-21.92,-6.0628,0.29,0.347,3.479,1.0,0.0131,22,314,178,1.49
-32.59,-6.0263,0.533,0.911,1.797,1.0,0.0074,30,54,196,4.31
-306.73,-5.8952,0.408,0.352,2.215,1.0,0.0185,3,28,232,0.86
-19.13,-5.6099,0.272,0.402,3.782,1.0,0.0122,17,293,319,0.74
-26.83,-5.4207,0.678,1.17,1.333,1.0,0.0041,15,16,357,3.3
-19.13,-5.2879,0.601,0.782,1.55,1.0,0.0041,8,139,172,2.29
-25.28,-5.2364,0.936,1.526,0.932,1.0,0.0034,29,332,236,2.84
-35.69,-5.2235,11.438,12.042,0.078,1.0,0.0005,0,190,424,5.9
-16.96,-5.1178,0.253,0.474,3.839,1.0,0.0111,17,343,97,0.67
-25.93,-4.8387,0.396,0.539,2.519,1.0,0.0131,1,226,431,2.92
-16.35,-4.7891,0.481,0.568,1.981,1.0,0.0066,1,43,45,2.0
-314.85,-4.463,0.292,0.228,3.043,1.0,0.0108,8,218,466,0.31
-184.01,-4.368,0.585,0.72,1.543,1.0,0.0025,28,38,28,1.45
-15.47,-4.2897,0.362,0.549,2.616,1.0,0.0076,24,298,130,1.33
-262.19,-4.2334,0.302,0.263,2.908,1.0,0.0086,16,244,488,0.28
-29.22,-4.2309,12.619,11.401,0.068,1.0,0.0004,0,276,132,5.07
-141.64,-3.8641,0.52,0.755,1.75,1.0,0.0027,0,49,111,0.84
-23.18,-3.8636,0.385,0.569,2.706,1.0,0.0133,4,343,171,3.05
-21.89,-3.8449,0.514,0.792,1.759,1.0,0.0061,24,115,125,1.91
-38.71,-3.7921,4.384,10.261,0.194,1.0,0.002,31,146,67,5.34
-27.15,-3.7463,0.51,0.712,1.885,1.0,0.0108,17,201,401,3.72
-18.41,-3.7439,0.441,0.691,2.144,1.0,0.0096,18,76,262,3.11
-29.56,-3.707,3.354,5.486,0.267,1.0,0.0013,12,132,269,5.83
-21.45,-3.6231,0.357,0.531,2.718,1.0,0.0127,12,346,55,2.78
-156.36,-3.5003,0.784,1.512,1.084,1.0,0.0024,18,298,442,0.64
-194.39,-3.355,1.397,2.206,0.591,1.0,0.0018,6,281,247,1.29
-20.05,-3.2941,0.421,0.574,2.366,1.0,0.0101,12,210,158,3.01
-42.19,-3.2382,0.426,0.749,1.871,1.0,0.0108,24,12,207,0.92
-24.38,-3.1257,0.676,0.7,1.407,1.0,0.0108,8,17,490,2.05
-14.2,-3.043,0.369,0.45,2.618,1.0,0.0107,2,101,488,1.78
-67.91,-3.0371,0.588,1.048,1.411,1.0,0.0134,5,187,22,7.75
-18.98,-2.9873,0.518,0.682,1.786,1.0,0.0071,24,68,277,1.51
-10.93,-2.9287,0.281,0.735,3.163,1.0,0.0065,11,298,290,0.59
-21.55,-2.9181,1.946,3.307,0.45,1.0,0.0021,27,226,484,3.88
-225.9,-2.8019,0.399,0.462,2.201,1.0,0.0056,8,291,20,1.16
-176.04,-2.7736,2.707,3.651,0.299,1.0,0.0012,4,238,358,2.59
-16.36,-2.7348,0.337,0.407,2.913,1.0,0.0124,10,251,26,2.3
-17.6,-2.676,0.417,0.553,2.186,1.0,0.015,3,104,190,3.04
-30.16,-2.6736,4.435,10.063,0.176,1.0,0.0016,0,347,171,7.33
-168.82,-2.6118,0.196,0.175,5.016,1.0,0.0168,5,163,470,0.36
-118.73,-2.6107,0.44,0.398,2.193,1.0,0.0113,24,104,81,0.79
-21.41,-2.54,0.448,0.553,1.907,1.0,0.0126,7,311,75,3.68
-149.46,-2.5185,6.105,6.915,0.144,1.0,0.0007,17,185,244,4.27
-26.66,-2.3401,0.96,2.27,0.932,1.0,0.0033,7,61,453,5.5
-13.89,-2.1866,2.37,13.529,0.465,1.0,0.0015,31,344,143,0.43
-193.0,-2.1192,1.305,2.104,0.628,1.0,0.0025,17,160,245,2.62
-15.93,-2.039,0.466,0.636,1.975,1.0,0.0077,6,241,356,2.37
-10.08,-2.0203,0.318,0.31,3.392,1.0,0.0144,21,64,431,1.18
-127.0,-1.8892,2.331,3.371,0.355,1.0,0.0014,12,225,409,2.79
-144.18,-1.8158,1.194,1.949,0.696,1.0,0.0024,30,236,190,2.64
-194.98,-1.8086,0.524,0.639,1.593,1.0,0.0122,16,72,287,2.39
-18.84,-1.7607,3.725,4.72,0.238,1.0,0.001,16,341,317,5.27
-199.02,-1.7602,0.512,0.568,1.702,1.0,0.0131,16,124,426,2.23
-9.25,-1.6726,0.373,0.457,2.657,1.0,0.0071,25,117,415,1.24
-106.78,-1.623,5.69,6.543,0.154,1.0,0.0007,28,236,344,4.35
-13.24,-1.6193,0.534,0.819,1.766,1.0,0.0062,22,47,284,3.25
-111.46,-1.6141,0.855,1.454,1.013,1.0,0.0029,6,298,101,1.35
-151.59,-1.5908,0.345,0.305,2.608,1.0,0.0123,7,155,487,1.03
-124.29,-1.5353,0.503,0.684,1.789,1.0,0.0066,6,20,340,2.35
-119.14,-1.5186,1.254,1.793,0.666,1.0,0.0022,6,135,336,2.56
-18.53,-1.5079,0.598,0.799,1.562,1.0,0.0105,16,337,18,4.98
-103.65,-1.4891,0.215,0.165,4.757,1.0,0.0181,2,166,243,0.25
-12.06,-1.4815,0.516,0.497,1.796,1.0,0.0102,19,196,3,2.19
-155.04,-1.3736,0.355,0.412,2.65,1.0,0.0159,5,78,483,1.9
-90.7,-1.3444,0.422,0.574,2.118,1.0,0.0049,7,236,54,1.3
-14.67,-1.3298,0.577,0.782,1.653,1.0,0.0073,18,10,173,3.23
-70.37,-1.3246,0.364,0.572,2.489,1.0,0.0051,18,157,417,0.66
-11.81,-1.3202,0.347,0.463,2.8,1.0,0.0109,25,284,82,2.3
-10.26,-1.2898,0.503,0.843,1.86,1.0,0.0053,25,297,319,1.66
-130.49,-1.2159,0.475,0.598,1.946,1.0,0.0123,5,25,279,2.28
-152.44,-1.2055,0.469,0.578,1.902,1.0,0.0199,23,25,141,2.5
-59.44,-1.1929,0.178,0.261,5.752,1.0,0.013,14,238,499,0.15
-82.6,-1.1782,8.453,15.225,0.101,1.0,0.0008,11,297,458,6.83
-91.72,-1.1647,4.802,5.422,0.182,1.0,0.0007,28,115,358,4.25
-11.25,-1.1032,2.206,3.965,0.393,1.0,0.0016,15,257,418,2.29
-76.05,-1.0739,0.337,0.404,2.916,1.0,0.0073,30,144,249,1.05
-154.0,-1.0007,0.671,0.963,1.266,1.0,0.0045,13,78,183,3.3
-14.78,-0.967,0.71,1.359,1.246,1.0,0.0038,16,50,103,4.17
-9.45,-0.9537,0.368,0.461,2.842,1.0,0.0112,30,245,353,2.25
-75.72,-0.9487,2.924,4.421,0.297,1.0,0.0014,28,277,364,4.28
-9.93,-0.9459,0.381,0.406,2.717,1.0,0.0146,18,197,486,1.94
-71.74,-0.88,0.263,0.267,3.915,1.0,0.014,5,175,402,0.93
-8.42,-0.8534,0.411,0.549,2.51,1.0,0.008,30,225,275,2.1
-84.09,-0.7733,0.44,0.473,2.128,1.0,0.0192,29,62,139,2.13
-73.42,-0.725,0.198,0.179,5.037,1.0,0.0182,23,293,498,0.33
-8.85,-0.6877,0.491,0.59,1.903,1.0,0.0096,13,269,107,2.86
-34.25,-0.6802,0.437,0.967,2.002,1.0,0.0116,5,270,5,7.87
-96.19,-0.6757,0.334,0.392,2.874,1.0,0.013,5,227,239,2.09
-27.27,-0.6655,0.524,1.427,1.272,1.0,0.0072,22,14,429,6.02
-9.41,-0.6395,0.624,0.925,1.591,1.0,0.0057,7,82,161,3.57
-26.13,-0.6375,0.418,0.386,2.482,1.0,0.009,24,140,87,0.78
-88.76,-0.6253,0.436,0.469,2.186,1.0,0.0126,19,271,30,2.18
-61.72,-0.6243,0.336,0.361,3.023,1.0,0.0138,30,146,9,1.69
-6.83,-0.6183,0.316,0.403,3.269,1.0,0.0134,11,110,476,1.77
-86.07,-0.6114,0.523,0.863,1.629,1.0,0.0061,5,33,445,3.33
-56.77,-0.5936,0.354,0.375,2.794,1.0,0.0138,3,119,38,1.73
-56.75,-0.5934,0.325,0.318,3.142,1.0,0.0143,28,154,116,1.27
-60.04,-0.5442,0.379,0.425,2.656,1.0,0.0139,15,40,228,1.99
-33.64,-0.5168,0.25,0.312,4.042,1.0,0.0094,23,196,400,0.55
-9.94,-0.5134,4.756,7.917,0.198,1.0,0.0011,18,290,340,6.11
-68.68,-0.5032,0.401,0.415,2.429,1.0,0.0173,12,95,171,2.13
-67.9,-0.4591,0.406,0.529,2.41,1.0,0.0106,25,150,333,2.5
-42.27,-0.4577,0.479,0.544,2.009,1.0,0.0101,18,51,363,2.14
-31.29,-0.4326,0.353,0.373,2.849,1.0,0.0089,30,112,165,1.13
-16.65,-0.4289,1.748,3.725,0.526,1.0,0.0019,17,24,55,7.78
-51.11,-0.4086,0.318,0.352,3.023,1.0,0.0118,12,205,337,1.35
-22.18,-0.4044,0.447,1.015,1.542,1.0,0.0094,24,33,404,2.21
-20.2,-0.3969,0.347,0.659,2.665,1.0,0.0053,18,275,406,0.61
-45.69,-0.3967,0.235,0.222,4.414,1.0,0.0172,23,238,178,0.81
-36.52,-0.3903,0.347,0.538,2.741,1.0,0.0078,23,215,404,1.47
-43.17,-0.3895,0.251,0.239,4.292,1.0,0.017,25,235,298,0.9
-9.28,-0.37,0.512,0.876,1.571,1.0,0.0087,17,7,112,4.04
-51.36,-0.3687,0.88,1.523,0.977,1.0,0.0026,6,17,363,3.88
-17.02,-0.364,0.557,1.367,1.432,1.0,0.0105,13,38,467,6.85
-6.14,-0.3597,0.55,0.775,1.667,1.0,0.0064,16,324,242,3.03
-5.57,-0.3263,0.339,0.444,3.152,1.0,0.0144,11,113,70,2.66
-9.27,-0.3013,0.528,0.649,2.019,1.0,0.0135,22,8,202,2.78
-5.07,-0.2956,0.418,0.439,2.473,1.0,0.0144,23,95,202,2.23
-14.64,-0.2846,1.61,2.764,0.54,1.0,0.0017,11,187,422,1.69
-6.25,-0.2844,1.264,2.131,0.647,1.0,0.0022,29,143,19,3.91
-23.36,-0.274,3.428,5.856,0.265,1.0,0.0013,18,155,381,6.17
-4.0,-0.264,0.414,0.619,2.363,1.0,0.0058,30,276,53,1.51
-68.0,-0.2621,0.592,0.778,1.707,1.0,0.0142,19,132,413,4.7
-80.01,-0.257,0.506,0.766,1.748,1.0,0.014,10,49,25,4.91
-38.99,-0.2467,0.368,0.454,2.636,1.0,0.0104,10,248,312,2.1
-25.11,-0.2361,0.466,0.596,2.022,1.0,0.0086,7,115,203,2.49
-47.45,-0.2279,0.472,0.482,2.031,1.0,0.0196,19,295,16,3.0
-44.47,-0.2248,0.374,0.533,2.618,1.0,0.0161,5,280,191,3.63
-52.46,-0.2222,0.524,0.865,1.748,1.0,0.0091,22,228,10,4.61
-45.18,-0.2173,0.403,0.397,2.482,1.0,0.0193,9,130,375,2.16
-46.14,-0.2098,0.539,0.877,1.697,1.0,0.0082,26,53,287,4.45
-20.6,-0.2093,0.366,0.556,2.594,1.0,0.0073,27,250,106,1.56
-20.28,-0.2062,0.276,0.306,3.818,1.0,0.0127,23,190,317,1.08
-26.51,-0.2044,0.42,0.439,2.306,1.0,0.0117,17,84,75,1.85
-56.82,-0.1963,0.556,0.635,1.703,1.0,0.0113,22,14,348,3.06
-3.74,-0.1818,0.386,0.447,2.615,1.0,0.0094,28,201,152,1.92
-5.84,-0.1784,0.618,0.774,1.638,1.0,0.0106,13,108,171,4.05
-15.07,-0.1598,0.148,0.485,6.318,1.0,0.0187,31,150,267,0.72
-16.85,-0.1597,0.397,0.643,2.371,1.0,0.0072,22,291,155,1.92
-62.0,-0.1583,0.592,0.852,1.481,1.0,0.0141,19,37,491,4.4
-3.11,-0.1545,0.315,0.399,3.192,1.0,0.0096,25,214,123,1.4
-25.99,-0.1538,0.365,0.424,2.792,1.0,0.0114,18,290,374,1.8
-29.94,-0.1421,0.385,0.603,2.448,1.0,0.0137,10,295,476,3.37
-5.86,-0.133,2.31,4.147,0.399,1.0,0.0016,10,64,411,6.36
-7.22,-0.1236,9.406,10.124,0.095,1.0,0.0006,26,218,178,7.8
-11.93,-0.1038,0.342,0.324,3.177,1.0,0.0191,29,178,365,1.56
-27.16,-0.0987,0.594,1.285,1.601,1.0,0.0075,13,70,399,5.72
-7.92,-0.0965,1.496,3.227,0.539,1.0,0.0021,24,115,308,4.06
-17.2,-0.0954,0.384,0.421,2.676,1.0,0.0191,22,170,393,2.57
-7.13,-0.0903,0.368,0.551,2.732,1.0,0.0072,0,96,294,1.52
-31.95,-0.0897,0.523,0.822,1.874,1.0,0.0153,7,69,461,5.11
-3.73,-0.0846,0.744,1.29,1.275,1.0,0.0034,19,55,24,3.51
-5.91,-0.0817,0.519,0.936,1.55,1.0,0.0122,3,14,467,4.37
-15.25,-0.0709,0.352,0.374,2.855,1.0,0.0191,18,239,213,2.35
-4.12,-0.0691,0.369,0.879,2.352,1.0,0.0136,31,120,116,3.1
-32.13,-0.069,0.56,1.117,1.615,1.0,0.0105,16,66,143,6.16
-9.49,-0.0687,58.804,4.394,0.016,1.0,0.0001,27,213,411,7.52
-5.52,-0.0612,0.342,0.367,3.009,1.0,0.0105,2,129,90,1.43
-13.0,-0.0577,0.431,0.636,2.543,1.0,0.0127,9,266,46,3.83
-1.75,-0.0552,0.325,0.491,2.931,1.0,0.0073,22,276,107,1.13
-8.19,-0.0527,3.307,1.836,0.27,1.0,0.0006,3,6,396,2.82
-8.73,-0.0461,0.409,0.53,2.382,1.0,0.0111,18,283,402,2.52
-46.5,-0.0459,0.454,1.096,1.955,1.0,0.0165,24,157,242,6.61
-1.66,-0.0452,0.336,0.41,3.055,1.0,0.0103,2,162,417,1.51
-15.92,-0.0449,8.833,2.239,0.106,1.0,0.0004,4,14,447,5.51
-9.78,-0.0448,1.588,2.925,0.551,1.0,0.0019,19,81,107,5.46
-1.71,-0.0447,0.461,0.696,2.164,1.0,0.0056,22,172,242,1.82
-2.09,-0.044,0.418,0.587,2.305,1.0,0.0114,2,79,258,2.82
-6.48,-0.0439,0.355,0.531,2.804,1.0,0.0127,20,279,462,2.76
-11.13,-0.0414,0.599,0.736,1.617,1.0,0.0166,13,114,238,4.3
-10.26,-0.0357,1.151,1.612,0.779,1.0,0.002,1,3,216,4.64
-22.35,-0.0331,0.446,0.648,2.09,1.0,0.0149,18,34,6,5.88
-2.5,-0.0242,3.071,6.137,0.273,1.0,0.0018,15,241,49,6.08
-35.13,-0.0228,0.417,0.983,1.552,1.0,0.0136,13,8,120,2.95
-2.54,-0.0218,1.279,2.57,0.714,1.0,0.0022,13,57,405,5.18
-1.93,-0.0192,2.047,3.763,0.429,1.0,0.002,28,195,288,5.19
-1.57,-0.0166,0.358,0.39,2.94,1.0,0.0108,29,181,122,1.56
-0.87,-0.0163,0.573,1.317,1.643,1.0,0.0033,9,271,37,0.61
-17.58,-0.0147,0.531,1.253,1.901,1.0,0.014,11,8,112,7.47
-2.28,-0.0126,6.982,9.007,0.128,1.0,0.0008,12,144,469,7.83
-2.4,-0.0081,0.906,2.376,0.955,1.0,0.0037,6,22,241,7.18
-8.03,-0.0075,0.909,1.091,0.734,1.0,0.0029,29,2,207,2.95
-27.05,-0.0071,0.464,0.824,1.372,1.0,0.0136,24,38,436,4.14
-0.96,-0.0067,0.412,0.532,2.507,1.0,0.0143,1,176,134,3.41
-38.06,-0.0054,0.411,0.717,1.355,1.0,0.0077,1,2,436,4.03
-0.44,-0.0053,0.202,0.449,4.814,1.0,0.0104,0,295,169,0.59
-2.38,-0.0015,14.288,3.387,0.068,1.0,0.0003,21,13,405,6.42
-0.43,-0.0007,5.108,8.254,0.186,1.0,0.0011,9,277,23,7.07
-0.16,-0.0002,0.561,0.864,1.497,1.0,0.0108,8,12,174,2.68
-0.14,-0.0,2.069,4.271,0.412,1.0,0.0019,25,28,463,7.93
0.09,0.0001,0.649,0.934,1.384,1.0,0.0046,8,302,209,2.99
1.41,0.0002,0.554,0.917,1.322,1.0,0.0152,29,3,244,5.49
0.93,0.0003,0.581,0.98,1.238,1.0,0.0128,31,5,420,7.23
2.74,0.0035,12.286,5.674,0.069,1.0,0.0004,24,186,177,4.92
0.68,0.0037,0.449,0.535,2.309,1.0,0.0123,18,179,405,2.69
1.98,0.0051,0.6,1.075,1.286,1.0,0.0071,30,6,423,4.19
2.77,0.0072,0.618,1.121,1.59,1.0,0.0141,24,129,407,6.42
3.87,0.0097,52.731,3.965,0.019,1.0,0.0001,25,152,211,6.93
5.63,0.0175,12.751,4.801,0.073,1.0,0.0003,29,81,356,5.75
1.28,0.0178,0.695,1.07,1.321,1.0,0.004,27,168,87,2.43
2.15,0.0198,5.913,6.679,0.161,1.0,0.0007,11,49,335,5.13
2.05,0.0222,0.464,0.644,2.016,1.0,0.0148,0,38,392,4.0
12.59,0.0278,1.176,3.104,0.756,1.0,0.0026,25,12,491,7.44
15.27,0.0306,0.616,1.315,1.271,1.0,0.0075,11,10,304,5.94
18.48,0.0381,0.601,1.171,1.433,1.0,0.0096,20,33,414,6.5
15.12,0.0391,0.818,1.746,0.992,1.0,0.0042,24,84,453,3.61
9.94,0.0416,0.565,0.708,1.765,1.0,0.0188,13,144,155,4.38
1.31,0.042,0.297,0.356,3.39,1.0,0.0087,28,192,453,0.9
2.2,0.0441,0.952,1.683,0.94,1.0,0.0026,1,46,236,3.59
21.12,0.0453,0.598,1.65,1.416,1.0,0.0067,30,15,389,6.68
5.9,0.052,0.531,1.324,1.645,1.0,0.0106,16,40,176,6.69
3.0,0.0533,2.604,4.626,0.343,1.0,0.0017,27,215,425,4.62
10.95,0.0549,0.352,0.504,2.88,1.0,0.0154,27,286,399,3.04
6.61,0.06,0.456,1.171,1.934,1.0,0.0124,24,59,298,3.47
7.67,0.0656,0.407,0.577,2.408,1.0,0.0135,5,89,415,2.76
12.89,0.067,4.966,6.496,0.253,1.0,0.0011,24,151,73,6.43
53.01,0.0685,0.61,0.843,1.707,1.0,0.019,22,41,339,7.34
45.74,0.0705,0.905,9.323,2.417,1.0,0.0186,24,176,8,4.59
3.98,0.0717,1.652,3.006,0.502,1.0,0.0023,30,235,10,4.9
7.7,0.0729,0.593,1.431,1.452,1.0,0.0093,13,46,249,7.4
48.65,0.0729,0.619,1.166,1.624,1.0,0.0184,19,95,36,6.73
3.12,0.0761,0.474,0.659,2.131,1.0,0.0091,12,182,120,3.48
41.48,0.0788,0.509,0.999,1.79,1.0,0.0135,24,150,401,5.06
3.44,0.0793,1.749,3.063,0.519,1.0,0.0023,1,267,152,3.94
2.79,0.0796,0.444,0.609,2.165,1.0,0.0082,22,156,78,2.74
15.07,0.0871,4.06,4.26,0.221,1.0,0.0008,7,91,186,4.85
2.05,0.0902,0.301,0.35,3.375,1.0,0.0096,28,206,392,1.06
51.45,0.1136,0.555,1.081,1.706,1.0,0.0129,28,65,215,7.45
3.02,0.1137,0.356,0.415,2.737,1.0,0.011,7,344,122,1.8
3.89,0.1166,1.299,1.977,0.711,1.0,0.0018,17,24,257,4.45
49.28,0.1217,0.957,2.314,1.033,1.0,0.0045,12,21,253,6.94
28.66,0.1239,0.415,0.463,2.439,1.0,0.0161,18,238,233,3.03
41.37,0.1267,0.578,1.057,1.856,1.0,0.0112,29,42,371,6.05
21.77,0.1307,0.374,0.473,2.811,1.0,0.0168,28,230,420,2.89
6.06,0.136,9.452,23.298,0.111,1.0,0.001,31,193,240,5.39
42.68,0.1388,0.514,0.755,1.881,1.0,0.0188,5,165,282,5.54
45.66,0.1465,0.551,1.303,3.324,1.0,0.0138,30,109,26,7.45
8.61,0.1579,0.652,1.603,1.262,1.0,0.0106,31,76,454,7.77
67.11,0.1579,0.616,1.024,1.61,1.0,0.0196,16,131,103,6.6
85.08,0.1741,0.565,0.789,2.001,1.0,0.0185,2,52,474,7.12
32.35,0.1886,0.363,0.466,2.896,1.0,0.0162,28,273,330,2.91
8.69,0.193,6.16,8.185,0.142,1.0,0.0008,27,122,92,7.14
8.66,0.1947,0.481,1.387,1.868,1.0,0.0136,31,198,435,3.95
66.04,0.1989,0.461,0.829,2.146,1.0,0.018,17,285,312,7.07
4.04,0.2028,0.659,1.041,1.373,1.0,0.0039,25,122,468,2.24
10.28,0.2349,1.594,3.624,0.532,1.0,0.0025,29,55,316,6.94
36.75,0.2408,0.334,0.56,2.913,1.0,0.013,14,201,484,2.74
73.24,0.2431,0.582,1.085,1.679,1.0,0.0098,18,75,289,7.44
60.09,0.2435,0.475,0.705,2.256,1.0,0.0199,12,136,104,5.33
35.6,0.2443,0.339,0.453,3.207,1.0,0.0149,11,115,166,2.72
21.93,0.2475,0.464,0.615,2.072,1.0,0.0064,12,98,483,2.0
5.28,0.2518,0.549,0.705,1.707,1.0,0.0075,5,5,178,1.88
37.9,0.2612,1.18,0.906,1.055,1.0,0.0115,24,57,101,5.81
16.31,0.2629,0.379,0.541,2.662,1.0,0.006,21,79,149,1.22
78.9,0.2761,0.492,0.818,2.055,1.0,0.019,5,180,293,6.08
77.82,0.278,0.699,1.387,1.363,1.0,0.0065,27,45,220,6.69
25.26,0.2808,9.979,3.005,0.12,1.0,0.0003,8,38,158,4.79
35.33,0.2813,0.362,0.339,2.962,1.0,0.0184,23,118,233,1.69
14.8,0.2886,0.647,1.094,1.499,1.0,0.0147,5,36,334,7.6
72.4,0.2944,0.533,0.709,2.034,1.0,0.016,12,69,477,4.77
59.06,0.2948,0.765,1.637,1.194,1.0,0.0068,17,201,428,7.05
34.14,0.2955,1.023,1.302,1.217,1.0,0.0092,20,8,66,7.78
52.03,0.299,0.548,0.95,1.693,1.0,0.008,28,254,475,4.25
105.78,0.3003,0.611,0.886,2.031,1.0,0.0196,13,160,321,7.07
6.73,0.3051,1.438,2.166,0.62,1.0,0.002,16,261,84,4.62
72.46,0.3269,0.405,0.482,2.54,1.0,0.0182,6,259,108,3.27
10.76,0.3286,7.14,3.912,0.135,1.0,0.0004,22,44,495,4.29
99.06,0.329,0.374,0.712,2.724,1.0,0.0192,15,259,392,5.95
16.91,0.3319,1.88,4.06,0.439,1.0,0.0019,24,105,275,4.53
26.2,0.3406,0.412,0.54,2.429,1.0,0.0066,10,112,479,1.61
20.83,0.3456,0.444,0.72,2.214,1.0,0.0051,21,75,349,1.51
69.23,0.3459,0.712,1.551,1.246,1.0,0.0075,17,239,206,6.67
52.53,0.3514,0.744,1.325,1.198,1.0,0.0057,17,270,376,3.18
62.87,0.3607,0.369,0.526,2.887,1.0,0.0155,25,228,365,3.26
49.29,0.3738,0.413,0.52,2.389,1.0,0.0124,0,50,117,2.74
90.85,0.3854,0.595,0.733,1.931,1.0,0.0192,19,241,312,5.03
16.51,0.3988,0.534,1.329,1.877,1.0,0.0117,25,18,160,7.54
86.78,0.4017,0.801,1.996,1.319,1.0,0.0053,8,95,335,6.46
10.69,0.4141,6.154,8.324,0.157,1.0,0.0009,11,88,274,6.45
6.78,0.4141,0.435,0.657,2.23,1.0,0.0088,17,237,244,1.85
45.75,0.4311,1.758,3.095,0.522,1.0,0.0026,9,230,311,4.58
19.56,0.4336,0.289,0.408,3.578,1.0,0.0064,30,210,371,0.54
132.6,0.437,0.625,1.016,1.76,1.0,0.0123,5,215,401,7.13
64.68,0.4439,0.724,1.429,1.359,1.0,0.0048,28,64,241,4.73
93.07,0.4466,0.324,0.517,3.383,1.0,0.0197,21,209,380,3.93
97.82,0.468,0.6,1.195,1.551,1.0,0.0085,30,229,285,5.99
44.16,0.4733,2.911,5.251,0.308,1.0,0.0016,0,96,127,5.62
102.28,0.477,0.789,1.277,1.179,1.0,0.0065,17,284,18,5.05
108.57,0.4802,0.498,1.287,2.219,1.0,0.0128,14,288,387,7.44
115.28,0.4992,0.585,0.984,2.028,1.0,0.0105,25,41,499,5.87
32.28,0.5286,0.474,0.811,1.989,1.0,0.0046,15,106,23,1.6
161.16,0.54,0.418,0.716,2.605,1.0,0.0191,15,248,51,6.41
15.21,0.5432,0.495,1.176,1.634,1.0,0.0125,31,120,78,5.22
82.13,0.5435,1.727,3.617,0.532,1.0,0.0021,0,22,143,5.42
64.42,0.5496,0.436,0.565,2.345,1.0,0.0089,29,192,401,2.41
61.59,0.5507,1.937,3.609,0.47,1.0,0.0023,12,209,93,5.95
7.3,0.5685,0.481,0.579,2.072,1.0,0.015,6,61,37,3.2
128.41,0.5696,0.785,2.026,1.095,1.0,0.0075,0,242,259,7.41
64.73,0.5702,0.867,1.598,1.087,1.0,0.0036,12,65,391,4.28
128.03,0.5706,0.584,1.501,1.476,1.0,0.0093,31,95,306,4.96
10.33,0.5741,0.521,0.793,1.874,1.0,0.0117,1,64,400,4.51
108.8,0.5766,0.573,0.864,1.717,1.0,0.0093,17,177,43,4.61
142.2,0.5862,0.448,0.764,2.435,1.0,0.0197,1,210,455,5.83
82.84,0.6177,0.416,0.566,2.53,1.0,0.0115,3,202,325,2.89
127.35,0.6195,0.536,0.843,2.138,1.0,0.0128,29,75,257,5.12
106.26,0.6235,1.247,3.163,0.715,1.0,0.0048,21,153,417,7.34
93.27,0.6303,0.448,0.595,2.384,1.0,0.0164,5,135,34,3.68
106.46,0.65,0.48,0.819,2.124,1.0,0.01,3,204,268,4.39
8.33,0.6565,0.494,0.649,2.073,1.0,0.0134,6,59,163,3.44
96.54,0.683,0.429,0.598,2.424,1.0,0.0097,28,256,149,3.09
71.5,0.6854,1.128,1.93,0.817,1.0,0.0033,27,156,448,3.94
160.09,0.6892,0.475,0.722,2.232,1.0,0.0164,4,237,446,5.07
11.7,0.6923,0.693,1.241,1.403,1.0,0.0059,19,126,444,5.16
31.53,0.6997,5.975,3.49,0.171,1.0,0.0005,19,45,81,5.28
145.43,0.7024,0.538,0.856,2.081,1.0,0.0127,30,66,158,5.11
121.07,0.7098,1.355,3.601,0.615,1.0,0.0047,11,237,480,7.09
12.01,0.7105,0.556,0.797,1.733,1.0,0.011,8,346,411,4.57
18.59,0.7123,1.937,3.929,0.446,1.0,0.0018,26,44,69,5.98
180.96,0.7359,0.602,0.87,2.109,1.0,0.0179,9,47,90,6.55
180.52,0.7541,0.489,0.687,2.435,1.0,0.0182,22,298,173,5.59
118.96,0.7557,0.82,1.759,1.179,1.0,0.0051,13,268,274,6.29
208.59,0.7781,0.573,0.822,2.303,1.0,0.0182,9,221,480,7.0
27.13,0.7981,10.678,5.99,0.085,1.0,0.0004,16,202,198,7.4
11.49,0.8102,0.513,0.779,1.855,1.0,0.0106,9,112,19,4.5
159.12,0.8319,0.849,2.073,1.171,1.0,0.0052,3,90,135,6.84
206.14,0.834,0.496,0.779,2.549,1.0,0.0194,3,215,393,6.48
12.95,0.8443,0.573,0.777,1.624,1.0,0.0106,19,347,147,4.56
143.58,0.8529,0.657,1.186,1.459,1.0,0.0074,12,280,394,4.64
173.82,0.8652,0.407,0.875,2.53,1.0,0.0143,31,52,208,5.65
177.32,0.8666,0.544,0.911,2.142,1.0,0.0113,9,264,448,5.14
182.55,0.8705,0.42,0.885,3.084,1.0,0.018,0,55,434,6.9
122.4,0.8846,0.796,1.536,1.215,1.0,0.0051,10,133,250,5.33
180.85,0.8945,0.552,1.032,2.011,1.0,0.0137,9,65,129,6.8
141.08,0.926,0.625,1.092,1.537,1.0,0.0071,17,277,311,3.24
216.14,0.9318,0.607,1.047,1.926,1.0,0.0116,9,216,468,7.12
142.01,0.9328,1.353,4.358,0.646,1.0,0.0053,31,86,391,6.9
57.79,0.9422,0.46,0.886,1.995,1.0,0.0049,2,291,481,1.28
23.01,0.9435,0.585,1.452,1.544,1.0,0.008,8,45,405,6.27
232.14,0.945,0.609,1.194,1.761,1.0,0.0101,2,249,449,7.35
181.8,0.9726,0.551,0.804,1.961,1.0,0.0109,28,138,399,4.65
156.06,0.9747,0.46,0.777,2.214,1.0,0.0123,20,152,190,4.5
213.75,1.0041,0.566,0.736,2.076,1.0,0.0172,26,68,307,4.9
153.14,1.0097,0.536,0.95,2.001,1.0,0.0091,26,184,251,4.77
242.99,1.0103,0.46,0.895,2.485,1.0,0.0161,0,171,286,6.88
127.6,1.0276,0.611,1.058,1.635,1.0,0.0061,20,231,205,3.94
57.74,1.0329,1.354,1.442,1.364,1.0,0.0095,13,65,11,6.26
129.31,1.0462,0.532,0.737,2.038,1.0,0.0092,17,77,148,3.92
153.92,1.0561,0.755,1.316,1.307,1.0,0.0057,23,182,348,4.7
178.14,1.0718,0.587,1.096,1.694,1.0,0.0094,17,122,314,5.83
138.74,1.081,0.698,1.492,1.307,1.0,0.0054,14,90,322,4.62
178.56,1.0852,0.312,0.535,3.58,1.0,0.0181,0,264,446,3.39
180.88,1.1395,0.845,2.012,1.197,1.0,0.0051,9,61,238,7.47
226.93,1.1451,0.534,1.228,1.924,1.0,0.0111,0,259,53,6.43
28.91,1.1549,0.762,2.661,1.216,1.0,0.0054,5,18,77,5.81
136.06,1.1549,0.673,1.261,1.441,1.0,0.0055,26,119,376,4.26
97.91,1.1845,1.558,3.177,0.567,1.0,0.0026,0,295,194,3.25
8.93,1.1876,0.682,1.043,1.344,1.0,0.0034,28,186,417,1.83
208.7,1.1959,0.506,0.793,2.261,1.0,0.0137,4,106,150,5.17
204.79,1.2103,0.541,0.918,1.987,1.0,0.0105,30,170,164,5.13
9.55,1.2337,0.405,0.39,2.445,1.0,0.0127,7,181,270,1.82
151.15,1.2418,0.712,1.414,1.463,1.0,0.0055,6,103,394,5.28
234.33,1.2444,0.632,1.27,1.99,1.0,0.0096,25,109,350,7.28
10.76,1.2592,0.747,1.301,1.166,1.0,0.0036,2,222,233,2.27
184.25,1.2644,0.651,1.3,1.605,1.0,0.0067,28,195,73,5.5
104.33,1.2644,0.328,0.631,2.846,1.0,0.0081,0,188,343,1.59
7.32,1.2656,0.227,0.303,4.607,1.0,0.0122,14,202,52,0.84
23.75,1.2677,0.752,2.1,1.171,1.0,0.0042,12,16,317,5.69
220.08,1.2781,0.488,0.938,2.241,1.0,0.0133,27,197,167,5.72
170.09,1.3395,1.15,2.534,0.836,1.0,0.0034,20,115,263,5.86
15.9,1.3726,0.562,0.876,1.599,1.0,0.0086,16,258,462,4.74
211.95,1.373,0.808,1.908,1.161,1.0,0.0062,11,175,475,5.77
178.51,1.3768,0.315,0.482,3.566,1.0,0.0157,21,178,142,2.79
15.19,1.3779,1.976,3.414,0.465,1.0,0.0022,1,255,460,4.2
16.95,1.3946,0.685,1.355,1.353,1.0,0.0044,26,23,235,4.18
193.64,1.3998,0.858,1.677,1.171,1.0,0.0056,17,151,383,5.91
217.05,1.4574,0.791,1.912,1.353,1.0,0.0058,20,135,374,6.7
211.75,1.4924,0.483,0.99,2.094,1.0,0.0092,2,186,238,4.75
216.23,1.5014,0.664,1.269,1.583,1.0,0.0073,27,253,279,4.94
163.52,1.5367,0.621,1.199,1.655,1.0,0.0059,10,97,296,4.42
8.99,1.5407,0.273,0.691,3.258,1.0,0.0078,21,339,412,0.82
258.37,1.5553,0.436,0.911,2.543,1.0,0.0129,15,195,109,5.54
96.81,1.5559,0.271,0.552,3.564,1.0,0.0084,21,240,432,0.89
177.13,1.5613,0.831,1.961,1.222,1.0,0.0041,11,26,334,5.0
23.75,1.5778,0.531,0.965,1.978,1.0,0.0134,30,25,75,5.01
24.0,1.5893,1.277,3.001,0.699,1.0,0.0021,24,105,165,3.31
194.61,1.6035,0.385,0.608,2.901,1.0,0.0131,24,260,84,2.67
11.66,1.6407,0.535,0.618,1.768,1.0,0.0075,16,213,235,2.46
281.13,1.6476,1.037,2.389,1.382,1.0,0.0062,2,182,26,7.17
12.25,1.6488,0.336,0.414,3.021,1.0,0.0116,10,261,438,1.91
11.89,1.6579,0.404,0.503,2.552,1.0,0.0103,2,135,299,2.29
117.46,1.6704,0.477,0.726,2.127,1.0,0.005,28,257,1,2.54
10.86,1.6728,0.335,0.371,3.118,1.0,0.0116,29,273,413,1.52
265.63,1.6755,0.426,0.826,3.009,1.0,0.0156,24,253,467,3.97
260.18,1.6781,0.998,2.173,1.065,1.0,0.0054,29,277,386,7.1
14.72,1.7008,0.502,0.647,1.984,1.0,0.0114,13,213,351,3.44
20.96,1.7293,0.522,0.86,1.892,1.0,0.0122,29,30,258,4.44
203.1,1.7398,1.084,2.242,0.846,1.0,0.004,2,292,63,4.97
9.96,1.7438,0.272,0.362,3.709,1.0,0.0111,12,325,273,1.0
182.47,1.7626,0.855,1.395,1.19,1.0,0.0037,19,184,79,4.49
44.27,1.7975,4.817,4.776,0.204,1.0,0.0008,24,129,181,4.46
18.07,1.8033,0.542,0.689,1.74,1.0,0.013,19,343,148,4.1
219.44,1.8279,0.732,1.232,1.407,1.0,0.0049,8,228,113,4.53
274.69,1.8545,0.503,1.209,2.598,1.0,0.014,27,107,225,7.11
18.5,1.9071,0.95,1.905,0.996,1.0,0.0033,16,140,425,5.21
135.81,1.9178,0.504,0.981,1.843,1.0,0.0049,21,190,61,1.79
15.6,1.9624,0.487,0.775,2.083,1.0,0.0108,10,56,193,4.0
27.38,1.9788,0.555,0.885,1.812,1.0,0.0146,4,38,476,5.72
221.35,2.0128,0.356,0.456,3.219,1.0,0.0163,24,293,110,2.1
310.36,2.0801,0.982,2.433,1.092,1.0,0.0056,21,109,125,7.45
13.52,2.0924,0.637,0.924,1.402,1.0,0.0043,16,348,326,2.52
15.7,2.2203,0.466,0.812,2.098,1.0,0.0074,1,307,419,2.42
209.84,2.255,1.08,2.16,0.946,1.0,0.0032,18,99,156,5.47
26.51,2.2743,0.595,0.947,1.902,1.0,0.0148,13,274,25,6.24
282.89,2.3132,1.347,3.121,0.78,1.0,0.0039,11,80,402,6.62
13.84,2.3159,0.367,0.468,2.767,1.0,0.0099,18,214,340,1.69
34.01,2.4748,0.571,1.038,1.613,1.0,0.0113,21,19,490,6.65
266.49,2.4837,0.593,0.867,1.803,1.0,0.0067,18,120,82,3.78
14.74,2.7388,0.348,0.491,2.813,1.0,0.0093,30,302,251,1.83
173.34,2.7436,0.381,0.51,2.853,1.0,0.0071,0,62,470,1.47
33.08,2.92,1.09,2.795,0.83,1.0,0.0028,28,27,108,5.3
22.94,2.9472,1.084,1.719,0.804,1.0,0.0031,8,304,115,4.62
34.72,3.0731,1.062,2.606,0.873,1.0,0.0035,27,25,298,6.72
31.55,3.138,2.742,5.677,0.316,1.0,0.002,20,215,483,7.25
260.77,3.2205,1.125,2.005,0.884,1.0,0.0027,12,96,64,4.33
21.85,3.4939,0.718,1.202,1.217,1.0,0.0048,27,204,273,3.24
19.82,3.5341,0.429,0.602,2.327,1.0,0.0142,29,115,146,3.38
31.49,3.5436,6.181,8.038,0.159,1.0,0.0008,5,207,494,6.53
39.85,3.6989,0.579,0.992,1.766,1.0,0.0137,7,80,451,6.75
95.17,3.7045,0.704,0.643,1.5,1.0,0.0032,19,17,480,0.84
14.06,3.7759,0.322,0.373,3.28,1.0,0.0095,30,203,226,1.25
48.94,3.8949,0.572,1.114,1.87,1.0,0.015,30,10,29,4.26
38.71,4.1785,0.448,1.241,1.832,1.0,0.0133,31,101,43,5.93
40.11,4.2975,0.52,1.103,2.006,1.0,0.0129,9,15,186,6.54
51.4,4.4042,0.559,1.156,2.07,1.0,0.0116,30,7,156,5.0
47.93,4.4066,0.585,1.502,1.517,1.0,0.0078,6,12,117,6.3
48.85,4.4929,0.61,1.206,1.524,1.0,0.0107,0,21,464,7.62
17.24,4.607,0.356,0.388,3.104,1.0,0.0132,30,161,155,1.81
23.19,4.6532,0.441,0.599,2.338,1.0,0.0124,14,36,140,3.24
29.5,4.7358,0.558,0.783,1.878,1.0,0.0147,16,189,249,4.85
62.61,4.8397,1.631,4.292,2.271,1.0,0.0043,24,110,12,4.29
25.55,4.8472,0.51,0.72,1.951,1.0,0.0111,18,50,72,4.21
42.24,4.8944,0.578,1.034,1.79,1.0,0.0103,29,51,458,6.54
35.63,4.9503,0.496,0.793,1.922,1.0,0.0125,24,113,430,2.9
27.54,5.1934,0.392,0.549,2.887,1.0,0.014,9,271,345,2.84
29.16,5.277,0.449,0.689,2.145,1.0,0.0122,4,235,220,3.92
45.31,5.4078,3.027,4.639,0.318,1.0,0.0012,26,43,497,6.16
19.29,5.4389,0.611,1.219,1.479,1.0,0.0038,1,325,28,1.39
24.95,5.4685,0.388,0.577,2.587,1.0,0.0103,4,331,68,2.67
29.14,5.6338,0.43,0.724,2.267,1.0,0.0106,12,300,308,3.59
16.16,5.8501,0.32,0.335,3.242,1.0,0.0093,3,177,119,1.04
24.3,5.9071,0.497,0.86,1.938,1.0,0.0064,11,29,333,3.15
37.66,5.9657,1.771,3.195,0.528,1.0,0.0019,19,122,376,5.61
21.94,6.078,0.4,0.564,2.432,1.0,0.0074,29,323,171,1.87
27.85,6.197,0.49,0.583,2.024,1.0,0.014,19,280,399,3.0
27.35,6.2842,0.421,0.559,2.372,1.0,0.0107,10,185,166,2.95
31.09,6.3243,0.439,0.76,2.276,1.0,0.0103,27,302,316,3.69
23.57,6.5129,0.367,0.427,2.828,1.0,0.0124,0,81,299,2.13
30.42,6.6132,0.799,1.494,1.179,1.0,0.0036,6,47,321,4.64
33.64,6.7052,0.438,0.743,2.348,1.0,0.0129,10,327,274,4.15
58.3,6.7252,0.652,1.265,1.306,1.0,0.0084,29,59,176,7.02
46.0,6.7296,0.547,0.901,1.947,1.0,0.0139,7,202,487,6.71
29.01,6.757,0.388,0.694,2.383,1.0,0.0102,17,321,284,2.08
47.23,6.9308,2.306,5.112,0.396,1.0,0.0018,29,92,161,6.65
28.93,7.0058,0.611,0.959,1.487,1.0,0.0054,29,292,169,3.02
19.17,7.2875,0.304,0.309,3.52,1.0,0.0125,25,156,200,1.08
59.47,7.3286,0.752,2.97,1.269,1.0,0.0042,13,37,228,6.97
61.65,7.4815,0.525,1.142,1.948,1.0,0.0116,28,10,329,5.29
48.01,7.5949,0.623,1.699,1.263,1.0,0.0087,11,284,469,6.19
52.04,7.6154,0.889,1.834,1.013,1.0,0.0046,22,70,298,6.62
41.22,7.981,2.825,4.708,0.313,1.0,0.0016,3,292,47,5.6
46.24,8.0427,0.573,0.964,1.812,1.0,0.0115,8,126,156,5.19
22.62,8.0823,0.356,0.389,2.94,1.0,0.0134,29,173,45,1.86
46.81,8.2466,0.561,0.959,1.912,1.0,0.0122,7,72,258,5.2
53.0,8.4897,0.489,0.861,2.011,1.0,0.0134,14,18,222,4.57
17.88,8.5164,0.21,0.397,4.602,1.0,0.011,11,263,423,0.52
60.5,8.8028,0.587,1.286,1.797,1.0,0.0142,13,95,82,6.52
56.04,9.0104,0.497,1.135,1.829,1.0,0.0114,30,18,327,5.37
49.38,9.1841,0.896,1.744,0.996,1.0,0.005,7,282,357,6.32
38.0,9.2041,0.423,0.537,2.467,1.0,0.0147,6,252,242,3.38
46.01,9.4838,0.959,2.077,0.903,1.0,0.0029,24,141,294,3.03
36.1,9.6206,0.645,0.988,1.449,1.0,0.0058,13,334,282,3.66
58.25,9.8013,10.825,32.826,0.105,1.0,0.0012,31,345,62,6.18
31.13,9.9238,0.42,0.546,2.404,1.0,0.0102,3,184,335,2.63
60.56,10.0059,0.619,1.034,1.544,1.0,0.0083,14,33,383,5.55
43.31,10.1772,0.539,0.81,1.842,1.0,0.0094,27,51,154,4.55
76.98,10.2202,0.772,1.854,1.171,1.0,0.0067,1,30,168,7.98
57.48,10.4828,1.781,3.408,0.547,1.0,0.0018,26,33,197,5.47
45.83,10.6018,0.73,1.577,1.41,1.0,0.0045,6,28,227,5.52
46.99,10.7322,0.578,0.88,1.822,1.0,0.0087,30,44,270,4.6
64.74,10.7505,0.651,1.262,1.429,1.0,0.0076,28,40,227,6.15
53.34,10.8181,0.885,2.222,1.037,1.0,0.0048,7,194,386,6.81
51.23,11.1069,0.726,1.722,1.371,1.0,0.0049,23,28,478,5.87
48.06,11.2439,0.539,0.84,1.917,1.0,0.0105,17,281,43,4.54
74.36,11.5411,1.058,1.422,0.928,1.0,0.0043,9,130,8,7.62
64.17,11.6464,2.851,6.273,0.304,1.0,0.0019,20,167,431,7.8
50.62,11.7235,0.533,0.753,1.928,1.0,0.0147,9,131,243,5.48
76.08,12.058,3.087,6.061,0.294,1.0,0.0016,28,82,332,7.98
39.06,12.062,0.525,0.651,1.884,1.0,0.0102,8,218,114,3.48
81.19,12.2574,1.941,5.154,0.493,1.0,0.0025,3,118,26,6.93
76.97,12.356,0.637,1.933,1.654,1.0,0.0135,31,311,319,5.1
38.46,12.3649,1.056,1.727,0.852,1.0,0.003,26,197,155,3.47
75.57,12.4357,0.624,1.165,1.831,1.0,0.0141,5,204,27,7.28
27.18,13.0521,0.319,0.327,3.426,1.0,0.0144,26,175,69,1.49
76.29,13.2964,0.702,1.288,1.296,1.0,0.0072,26,45,375,7.02
27.88,13.3998,0.258,0.365,3.992,1.0,0.012,21,165,184,1.33
24.38,13.4615,0.372,0.73,2.548,1.0,0.0053,11,163,144,0.94
51.53,13.5859,0.658,1.382,1.354,1.0,0.0056,10,72,329,5.55
58.49,13.9581,1.213,2.179,0.734,1.0,0.0031,7,241,31,5.45
69.48,14.2853,0.446,1.218,1.955,1.0,0.0138,31,178,149,3.86
32.37,14.3576,0.266,0.409,3.814,1.0,0.0139,14,234,9,1.72
78.43,14.5566,1.07,2.528,0.997,1.0,0.0047,29,112,86,7.91
45.5,14.7279,0.964,1.834,0.978,1.0,0.003,4,59,482,4.25
67.36,14.7403,1.14,3.085,0.859,1.0,0.0031,13,71,319,6.39
69.21,14.8283,2.791,7.811,0.311,1.0,0.0026,0,265,316,7.99
44.33,14.9987,0.603,0.872,1.624,1.0,0.0063,6,216,273,3.1
78.25,15.4824,0.869,2.877,1.183,1.0,0.0045,13,59,259,7.29
74.17,15.8957,0.545,1.098,1.746,1.0,0.0114,17,15,288,7.18
34.53,16.1394,0.467,0.602,2.045,1.0,0.0075,14,20,116,2.28
54.96,16.2591,0.462,0.697,2.073,1.0,0.0132,21,45,441,4.31
26.62,16.4125,0.469,0.865,1.95,1.0,0.0038,12,294,67,0.71
45.09,16.4914,0.356,0.468,3.092,1.0,0.0149,10,339,482,2.77
68.56,16.5733,0.641,1.22,1.446,1.0,0.009,9,183,401,7.19
49.57,16.8883,0.412,0.675,2.493,1.0,0.0137,25,208,324,4.0
82.85,17.1778,1.835,4.347,0.519,1.0,0.0025,7,130,246,7.51
42.24,17.5995,0.365,0.475,2.79,1.0,0.0113,26,311,293,2.31
68.23,17.6821,0.543,0.938,1.919,1.0,0.0147,8,306,188,6.27
30.11,18.0806,0.279,0.428,3.647,1.0,0.0096,21,159,136,1.12
49.58,18.2646,0.973,1.645,0.989,1.0,0.0029,13,160,162,4.31
90.85,18.5322,1.036,2.492,0.988,1.0,0.0046,25,49,129,7.89
72.64,18.7104,0.565,0.854,1.761,1.0,0.0089,31,4,309,2.81
84.84,18.8987,0.641,1.174,1.584,1.0,0.0097,27,61,301,7.6
91.7,19.0785,0.663,1.303,1.496,1.0,0.0101,19,90,86,6.55
37.17,19.4758,0.596,0.937,1.609,1.0,0.0041,22,78,156,2.72
60.64,19.6322,3.22,5.632,0.289,1.0,0.0014,14,96,406,5.1
52.21,19.8945,0.362,0.746,2.757,1.0,0.0138,14,205,472,3.87
59.57,19.9029,0.582,1.054,1.588,1.0,0.0078,17,302,296,3.35
65.16,19.9073,0.472,0.778,2.174,1.0,0.0129,24,157,482,3.24
56.81,20.0822,0.435,0.666,2.312,1.0,0.013,26,264,315,4.04
29.76,20.1876,0.33,0.395,3.153,1.0,0.0082,25,130,50,1.16
53.12,20.2733,1.214,2.127,0.77,1.0,0.003,30,209,373,3.94
53.57,20.3585,0.442,0.697,2.229,1.0,0.0116,20,201,325,3.85
89.58,20.4371,0.753,2.36,1.27,1.0,0.0101,31,241,397,4.03
87.27,20.4705,0.546,1.054,1.868,1.0,0.0136,29,68,270,7.11
66.91,20.8313,1.525,2.86,0.632,1.0,0.003,7,341,487,5.77
57.25,20.8744,0.574,1.058,1.63,1.0,0.0074,10,166,323,4.37
54.92,21.3855,0.46,0.767,2.125,1.0,0.0094,5,329,183,4.03
34.23,21.7093,0.331,0.334,3.38,1.0,0.014,20,181,140,1.44
66.75,21.9261,0.611,0.996,1.562,1.0,0.0088,16,318,418,5.37
59.66,22.197,0.447,0.626,2.154,1.0,0.0102,23,228,1,6.34
33.91,22.6046,0.347,0.626,2.795,1.0,0.0065,15,172,330,1.06
80.98,22.9912,0.569,1.272,1.59,1.0,0.0098,0,252,347,6.31
32.35,23.1546,0.231,0.335,4.502,1.0,0.0124,11,213,397,0.76
55.82,23.196,0.498,0.847,1.874,1.0,0.0076,25,242,395,3.29
80.8,23.4557,0.508,1.253,1.655,1.0,0.0104,0,296,280,6.18
89.55,24.1466,0.597,1.036,1.721,1.0,0.0115,6,58,377,7.47
89.97,24.1993,0.48,1.107,2.328,1.0,0.0133,12,18,189,5.5
68.62,24.2398,0.516,0.717,2.069,1.0,0.0109,9,236,308,4.07
77.26,24.2779,0.817,1.947,1.145,1.0,0.0051,27,75,467,6.61
47.74,24.3319,0.458,0.635,2.097,1.0,0.008,26,141,161,2.74
33.48,24.4419,0.345,0.493,2.997,1.0,0.0067,28,255,199,1.13
103.76,24.6286,0.603,1.767,1.556,1.0,0.0126,31,290,37,3.48
100.65,24.6449,0.925,2.3,1.188,1.0,0.0052,13,85,311,7.87
61.75,25.2042,0.447,0.764,2.241,1.0,0.0105,27,278,478,3.7
63.38,25.2119,0.528,0.938,1.821,1.0,0.0086,30,114,356,4.51
100.3,25.9134,0.7,1.154,1.377,1.0,0.0084,20,78,448,6.97
50.25,26.0683,0.751,1.184,1.237,1.0,0.0039,3,276,177,2.48
21.77,26.0699,0.141,0.45,8.289,1.0,0.0143,31,83,115,0.11
96.68,26.2863,1.811,4.487,0.507,1.0,0.0023,5,100,100,6.81
80.95,26.6243,0.526,0.806,1.959,1.0,0.0132,7,313,325,5.81
89.07,26.7362,1.716,4.177,0.508,1.0,0.0035,23,332,341,7.42
95.22,26.8848,0.557,1.014,1.852,1.0,0.0134,21,23,261,6.22
36.7,26.9031,0.233,0.307,4.584,1.0,0.0144,21,233,91,0.91
61.39,26.93,0.667,1.246,1.356,1.0,0.0053,20,133,392,4.05
51.43,27.1926,0.89,1.66,1.013,1.0,0.0033,21,165,188,2.34
108.21,27.3751,0.586,1.044,1.881,1.0,0.0121,24,218,310,5.53
88.88,27.9657,0.504,1.087,1.733,1.0,0.011,14,320,257,6.06
81.26,28.1246,0.605,2.743,1.74,1.0,0.0102,31,312,475,2.36
100.03,28.2294,0.591,1.217,1.655,1.0,0.0092,20,63,178,6.72
96.51,28.7026,0.585,1.055,1.929,1.0,0.0142,7,235,416,7.59
94.31,28.9877,2.509,7.183,0.349,1.0,0.0028,0,231,255,7.8
98.03,29.2109,2.352,6.381,0.355,1.0,0.0029,0,296,113,7.71
79.07,29.9089,0.383,0.945,2.349,1.0,0.0141,15,347,233,5.03
44.01,30.0527,0.407,0.558,2.438,1.0,0.0068,30,213,366,1.6
75.66,30.2825,0.845,1.467,1.266,1.0,0.0025,5,4,145,2.36
87.9,30.7406,1.319,3.16,0.711,1.0,0.0031,27,71,400,6.71
99.63,30.9204,1.167,2.465,0.822,1.0,0.0044,7,287,438,7.65
56.48,31.4618,0.385,0.502,2.721,1.0,0.0112,29,317,380,2.52
82.48,31.6597,0.573,0.928,1.818,1.0,0.011,17,57,340,6.44
81.62,31.9859,0.635,1.112,1.434,1.0,0.0074,16,319,271,5.66
57.86,32.0177,0.523,0.72,1.995,1.0,0.01,6,57,97,3.72
137.51,32.6816,1.135,3.439,0.829,1.0,0.0088,31,256,192,6.05
91.92,32.8131,0.647,1.115,1.48,1.0,0.0084,17,55,465,7.09
83.75,32.9662,1.261,2.382,0.718,1.0,0.0037,17,196,152,6.09
105.87,33.0585,0.743,1.368,1.441,1.0,0.0087,16,131,329,7.19
88.35,33.2499,0.847,1.741,1.274,1.0,0.0047,16,183,155,6.41
134.55,33.3799,1.252,3.933,0.879,1.0,0.0091,31,349,490,5.94
49.95,34.0921,0.312,2.244,3.162,1.0,0.0092,31,293,119,0.42
118.44,34.1431,0.55,0.914,1.839,1.0,0.0132,24,188,480,5.03
56.07,34.3355,0.364,0.487,2.859,1.0,0.0122,2,206,477,2.35
65.97,34.4008,0.464,0.796,2.148,1.0,0.0105,26,88,156,4.05
116.09,35.1107,0.612,1.103,1.659,1.0,0.0112,7,195,479,7.98
74.03,35.2415,1.351,2.941,0.633,1.0,0.0031,31,56,497,3.35
83.04,35.4001,1.455,3.402,0.572,1.0,0.0033,0,335,495,3.83
81.04,35.5407,0.584,0.883,1.648,1.0,0.009,8,267,286,4.66
99.46,35.858,0.677,1.177,1.472,1.0,0.0067,4,56,153,5.59
106.33,35.9351,0.685,1.162,1.456,1.0,0.0084,7,295,76,6.92
76.77,35.9684,0.484,0.918,2.018,1.0,0.0098,1,309,195,4.31
110.43,36.2912,1.095,2.434,0.883,1.0,0.0041,25,59,355,7.57
102.18,36.742,0.58,1.251,1.582,1.0,0.0106,17,206,379,7.79
97.42,36.9044,0.591,1.058,1.827,1.0,0.0108,9,140,474,7.29
43.1,37.6145,0.519,0.891,1.79,1.0,0.0038,25,219,439,1.03
71.21,37.9944,0.556,0.995,1.68,1.0,0.0062,15,33,293,3.81
118.57,38.0848,0.761,1.592,1.574,1.0,0.0079,20,201,31,7.52
91.41,39.3786,0.536,0.753,1.819,1.0,0.0118,9,198,485,4.39
66.76,39.5888,0.455,0.591,2.332,1.0,0.0135,12,124,47,3.54
113.76,39.6055,0.586,0.968,1.89,1.0,0.0133,3,77,423,6.84
100.89,41.0881,0.727,1.59,1.328,1.0,0.0068,19,210,391,6.74
68.19,41.138,0.744,1.286,1.255,1.0,0.0044,12,159,330,3.33
73.89,41.1794,1.315,2.265,0.691,1.0,0.0028,26,342,242,3.33
127.79,41.57,0.543,1.021,2.614,1.0,0.0129,11,50,7,5.43
126.38,41.7698,0.672,1.527,1.715,1.0,0.0092,11,29,65,7.01
81.8,42.1707,0.621,1.123,1.665,1.0,0.0056,4,70,18,4.49
75.5,42.6241,0.469,0.701,2.081,1.0,0.0119,29,127,337,3.76
102.22,42.7427,2.052,4.961,0.446,1.0,0.0027,14,231,109,6.59
43.86,42.783,0.475,0.709,2.057,1.0,0.0043,0,46,45,1.69
96.45,43.3409,0.595,1.162,1.723,1.0,0.0066,24,176,46,3.39
75.09,43.8015,2.696,4.053,0.347,1.0,0.0012,17,72,315,4.97
111.51,43.8053,1.311,2.975,0.671,1.0,0.0042,6,294,423,7.42
83.9,44.1333,1.589,2.755,0.592,1.0,0.0024,19,328,396,4.95
126.57,44.2432,0.963,3.746,1.098,1.0,0.0088,31,319,202,3.52
52.64,44.6622,0.441,0.646,2.262,1.0,0.006,2,137,491,1.78
119.92,45.5152,0.465,1.014,2.11,1.0,0.0149,11,245,408,7.36
123.49,45.911,0.611,1.263,1.745,1.0,0.0117,7,221,328,7.89
50.74,47.5109,0.338,0.84,2.728,1.0,0.0064,15,324,90,1.0
50.33,47.6225,0.338,0.378,3.105,1.0,0.0096,29,210,11,1.54
104.49,47.9953,0.724,2.002,1.138,1.0,0.0066,14,319,389,5.34
103.52,48.266,0.495,0.878,2.122,1.0,0.0137,10,285,343,5.72
116.16,49.1276,0.586,0.958,1.851,1.0,0.014,8,225,367,6.33
83.82,49.1414,0.484,0.723,2.095,1.0,0.01,22,173,226,4.06
99.87,49.2219,0.542,1.091,1.86,1.0,0.01,12,157,284,5.89
99.0,49.3112,0.466,0.737,2.167,1.0,0.013,30,326,36,5.14
94.18,49.4534,0.542,0.767,1.947,1.0,0.0137,13,196,298,4.8
118.37,49.4799,0.526,1.081,2.197,1.0,0.0145,25,132,62,7.36
59.15,49.6107,0.447,0.567,2.277,1.0,0.011,1,58,14,2.7
65.45,49.8383,0.482,0.812,2.015,1.0,0.0063,21,56,268,2.85
109.24,50.1307,1.024,2.146,0.922,1.0,0.0052,9,297,253,5.84
100.18,50.3188,0.577,0.819,1.737,1.0,0.0144,19,186,481,4.98
85.79,50.5041,0.731,1.186,1.264,1.0,0.0051,22,231,78,3.92
80.76,50.573,0.513,0.849,1.904,1.0,0.0076,23,185,494,3.44
89.79,50.724,0.573,1.038,1.586,1.0,0.007,22,134,206,4.69
97.5,50.8517,0.794,1.35,1.217,1.0,0.0058,9,229,286,4.39
135.78,50.9053,1.201,2.433,0.838,1.0,0.004,13,186,336,7.94
73.2,52.0595,0.436,0.565,2.268,1.0,0.0122,17,101,60,2.97
96.69,52.7542,0.607,1.078,1.601,1.0,0.0078,6,335,337,4.16
122.12,52.7921,0.824,2.153,1.05,1.0,0.0068,27,307,387,7.22
127.28,52.9024,0.596,1.524,1.566,1.0,0.0107,15,296,244,7.36
103.12,53.7624,0.583,0.937,2.068,1.0,0.0099,9,264,470,5.07
111.39,53.9558,1.145,2.081,0.828,1.0,0.0046,9,314,478,4.77
73.21,54.5321,0.43,0.526,2.298,1.0,0.0119,28,141,95,2.86
46.15,54.5613,0.248,0.352,4.397,1.0,0.0108,2,294,57,0.92
123.84,55.0418,0.58,1.1,1.933,1.0,0.0112,23,38,38,5.61
84.34,55.0576,0.41,0.626,2.478,1.0,0.0111,12,314,81,3.28
106.89,55.0851,0.667,1.071,1.67,1.0,0.0075,13,108,167,5.06
135.47,56.3633,0.644,1.456,1.46,1.0,0.0097,21,236,390,7.35
117.0,56.4648,2.405,5.323,0.411,1.0,0.0023,2,174,445,6.69
70.98,57.1063,0.525,0.918,1.754,1.0,0.0054,11,129,430,2.18
101.09,57.9681,0.578,1.081,1.636,1.0,0.0077,5,166,345,5.07
134.12,57.9917,1.223,3.285,0.666,1.0,0.005,0,326,313,6.52
126.73,58.3115,1.534,3.468,0.584,1.0,0.0036,6,267,370,7.62
100.11,59.1658,1.496,2.674,0.628,1.0,0.0029,25,280,122,4.69
136.5,59.6323,0.599,1.138,2.51,1.0,0.011,24,210,66,5.13
78.8,59.8549,0.345,0.589,3.159,1.0,0.014,15,126,213,3.36
116.23,60.2109,0.515,0.852,2.054,1.0,0.0144,29,92,350,5.59
134.96,60.7159,2.278,5.716,0.399,1.0,0.0023,5,248,211,7.71
179.67,61.3652,1.675,5.137,0.647,1.0,0.0069,31,299,52,5.64
110.08,61.5002,1.028,1.828,0.89,1.0,0.0046,17,276,324,4.12
116.27,61.7494,1.773,4.278,0.479,1.0,0.003,0,271,388,5.17
81.4,62.327,1.113,1.922,0.801,1.0,0.0026,6,104,377,3.66
126.3,63.6014,0.652,1.072,1.531,1.0,0.0095,9,180,482,6.32
97.14,63.7137,0.777,1.299,1.2,1.0,0.0051,9,106,405,4.33
124.54,63.811,1.612,2.994,0.56,1.0,0.0031,9,159,275,6.89
152.97,63.8175,0.726,1.516,1.789,1.0,0.0094,26,85,73,7.95
74.26,64.566,0.461,0.716,2.188,1.0,0.0069,15,90,344,2.43
139.04,65.5108,0.662,1.245,1.561,1.0,0.0091,7,287,141,7.22
92.06,66.8292,0.889,1.447,1.006,1.0,0.0038,27,189,342,3.1
113.49,67.3938,0.569,0.918,1.886,1.0,0.0102,18,300,426,4.8
140.45,67.8795,0.514,1.398,1.854,1.0,0.0125,0,347,299,7.38
106.08,68.1771,0.384,0.829,2.668,1.0,0.0135,2,324,24,5.19
152.88,68.7058,0.748,1.307,1.321,1.0,0.0076,8,232,210,6.97
115.65,72.2547,2.914,4.712,0.332,1.0,0.0013,31,16,351,4.57
89.24,72.2694,0.446,0.621,2.44,1.0,0.0114,20,190,388,3.2
64.84,72.4519,0.355,0.474,2.88,1.0,0.0081,23,161,436,1.42
87.61,72.624,0.425,0.603,2.62,1.0,0.0134,30,167,405,3.26
148.0,73.4281,1.339,3.654,0.614,1.0,0.0045,15,313,245,6.72
111.13,73.9024,0.757,1.454,1.195,1.0,0.0054,27,315,62,4.23
114.96,74.9224,1.5,3.293,0.629,1.0,0.0024,6,79,331,5.92
136.39,75.2719,0.42,0.921,2.354,1.0,0.0145,15,259,342,6.3
50.77,77.188,0.312,0.47,3.222,1.0,0.0061,23,166,216,0.7
97.77,77.3051,1.286,2.002,0.742,1.0,0.0023,19,190,269,4.12
70.24,77.5664,0.506,0.666,2.042,1.0,0.0079,18,42,155,2.69
131.68,77.7147,0.492,0.943,2.228,1.0,0.0131,23,328,350,6.15
189.15,78.23,2.207,7.236,0.432,1.0,0.0046,31,202,250,6.7
153.92,79.2553,0.751,1.869,1.351,1.0,0.0061,7,128,183,6.98
108.82,79.4931,0.532,0.853,1.835,1.0,0.0081,10,256,156,3.83
199.83,79.5357,0.923,1.7,1.141,1.0,0.007,24,234,346,6.59
159.18,80.2129,0.881,2.284,0.987,1.0,0.0069,21,292,195,7.31
128.84,80.4926,1.872,3.95,0.487,1.0,0.0023,21,59,339,5.58
143.88,80.6862,1.603,3.258,0.626,1.0,0.0021,19,149,55,6.05
193.49,81.7216,2.965,9.308,0.331,1.0,0.0038,31,235,427,6.57
95.13,81.8042,0.385,0.594,2.712,1.0,0.0111,20,345,308,3.03
101.16,82.947,1.123,2.388,0.788,1.0,0.0031,15,271,24,3.0
115.01,83.3483,1.315,2.234,0.716,1.0,0.0032,6,251,174,4.32
148.59,83.8772,0.535,1.066,2.103,1.0,0.0114,20,109,443,7.13
99.7,84.1678,0.508,0.869,1.917,1.0,0.0077,3,108,275,3.74
126.0,84.3446,1.882,3.744,0.509,1.0,0.0024,25,156,432,5.57
105.59,84.6035,0.595,0.871,1.742,1.0,0.0074,17,134,169,3.81
91.48,84.7061,0.435,0.562,2.321,1.0,0.0115,26,127,116,3.04
133.58,85.0116,0.546,0.899,2.098,1.0,0.0135,17,65,311,6.87
144.68,85.9887,0.664,1.247,1.851,1.0,0.0096,13,288,281,7.34
116.36,86.8118,0.455,0.769,2.379,1.0,0.0131,23,198,447,4.55
114.37,87.0233,0.551,0.808,1.852,1.0,0.0085,9,159,323,3.86
131.99,87.209,0.598,1.002,1.645,1.0,0.0088,28,150,247,5.18
149.75,88.5342,0.821,1.928,1.249,1.0,0.0056,7,217,222,7.12
130.49,88.5436,0.667,1.351,1.437,1.0,0.0067,29,196,406,5.5
141.05,88.6205,1.487,2.97,0.621,1.0,0.0035,18,335,199,6.18
96.26,89.0758,0.428,0.571,2.497,1.0,0.0128,3,176,337,3.02
161.64,89.3405,0.729,1.532,1.328,1.0,0.0068,5,109,176,6.97
177.16,89.5184,0.955,2.034,1.096,1.0,0.0056,12,89,390,8.0
129.05,89.5484,0.485,0.812,2.132,1.0,0.012,28,346,60,5.29
137.67,89.7069,0.608,1.292,1.49,1.0,0.0084,18,314,382,5.72
128.46,89.9373,0.732,1.355,1.365,1.0,0.0068,6,286,429,4.82
103.75,90.1367,0.447,0.668,2.271,1.0,0.0098,3,238,203,3.48
137.67,90.4168,0.543,0.792,1.982,1.0,0.0124,9,167,82,5.97
126.64,91.1709,0.402,0.959,2.5,1.0,0.0135,15,258,453,4.95
164.27,91.9359,0.601,1.212,1.7,1.0,0.0099,5,267,472,7.74
69.76,92.2032,0.31,2.647,3.628,1.0,0.0087,31,309,95,0.27
55.9,93.5657,0.255,0.3,4.117,1.0,0.0097,1,166,320,0.6
127.54,93.6356,0.539,0.75,1.95,1.0,0.0112,7,129,408,4.42
133.34,94.2805,0.958,2.271,0.856,1.0,0.0045,11,323,115,4.04
159.92,94.7395,0.577,1.235,2.092,1.0,0.0105,3,110,485,7.89
160.97,94.754,0.513,1.245,1.954,1.0,0.0141,23,326,152,7.87
137.63,95.1019,0.527,0.878,1.891,1.0,0.0121,4,233,328,5.17
147.98,95.1057,2.013,4.21,0.47,1.0,0.0025,18,200,185,7.23
142.94,96.0258,0.576,1.561,1.504,1.0,0.0085,14,304,215,5.61
124.64,97.8495,0.54,0.758,1.979,1.0,0.0135,9,88,224,4.83
116.63,98.0152,0.565,1.016,1.704,1.0,0.0071,4,302,436,3.54
94.96,98.7372,0.342,0.499,3.086,1.0,0.0125,2,270,158,2.56
124.12,98.7653,0.529,1.128,1.764,1.0,0.0079,2,308,227,4.47
126.58,99.0408,0.532,0.898,1.884,1.0,0.0091,28,130,376,4.6
94.0,99.2894,0.491,0.709,2.051,1.0,0.0075,18,110,250,2.94
154.83,99.5431,0.493,1.122,1.888,1.0,0.0112,15,231,55,6.31
76.66,99.6599,0.25,0.36,4.322,1.0,0.0139,0,219,93,1.41
166.44,99.7541,0.734,1.827,1.202,1.0,0.0075,21,282,20,6.37
119.55,100.4273,0.535,0.802,1.905,1.0,0.0084,12,242,57,3.95
145.89,101.2976,1.108,2.246,0.924,1.0,0.0035,13,166,290,5.98
168.07,102.7834,0.764,1.351,1.448,1.0,0.0063,19,136,118,6.48
82.63,103.6655,0.401,0.476,2.484,1.0,0.0093,29,161,22,2.13
112.97,103.8579,0.681,1.402,1.398,1.0,0.0047,1,72,105,4.43
175.81,104.3592,0.603,1.291,1.93,1.0,0.0113,19,156,162,7.6
112.27,105.4937,0.746,1.317,1.26,1.0,0.0045,29,254,105,3.76
211.99,105.6161,1.07,3.478,0.895,1.0,0.0083,31,229,339,5.1
150.55,106.1063,0.532,0.941,1.946,1.0,0.0104,3,311,115,6.04
94.14,106.2547,0.463,0.64,2.095,1.0,0.0067,4,145,6,2.63
97.39,106.7895,0.299,0.511,3.476,1.0,0.013,15,247,403,2.12
162.43,106.9589,0.624,1.255,1.53,1.0,0.0092,10,280,212,6.62
113.38,107.7268,0.468,0.578,2.354,1.0,0.0125,6,176,138,3.33
154.06,107.7671,0.735,1.569,1.366,1.0,0.0066,30,169,430,6.38
158.35,108.0277,1.55,3.108,0.64,1.0,0.0031,19,344,339,6.84
159.76,108.3412,0.705,1.814,1.317,1.0,0.0075,14,230,482,6.28
182.13,109.4669,0.683,1.521,1.404,1.0,0.0087,11,149,406,7.63
156.1,110.335,0.526,0.936,2.163,1.0,0.0135,22,292,185,6.61
108.36,110.9903,0.405,0.786,2.415,1.0,0.0086,2,338,145,3.17
72.7,111.5199,0.352,0.428,2.978,1.0,0.008,29,197,241,1.27
153.81,113.0407,0.446,1.034,2.325,1.0,0.0136,21,220,174,6.26
171.54,113.9284,0.802,1.969,1.155,1.0,0.0066,2,254,423,6.98
107.42,114.2684,0.444,0.487,2.375,1.0,0.0149,25,108,106,2.87
72.8,114.7053,0.471,0.714,2.064,1.0,0.0042,3,161,1,2.17
168.8,115.5052,0.684,1.384,1.493,1.0,0.0078,7,347,205,7.02
184.51,115.7708,0.834,1.894,1.279,1.0,0.0066,26,128,396,7.97
80.4,115.8958,0.352,0.666,2.727,1.0,0.0064,21,196,52,1.37
172.32,116.6284,0.704,1.376,1.559,1.0,0.0082,18,111,395,7.74
181.45,116.7354,0.502,1.043,2.094,1.0,0.0137,22,233,316,7.98
170.96,116.8925,0.644,1.131,1.563,1.0,0.0092,22,258,128,6.68
153.16,117.0244,0.798,1.788,1.241,1.0,0.0049,3,93,360,5.87
133.41,117.0385,0.393,0.773,2.652,1.0,0.0142,14,185,322,4.67
141.21,117.4096,1.439,2.892,0.666,1.0,0.0032,23,255,452,4.79
148.97,118.7761,0.93,1.935,1.031,1.0,0.0049,22,216,493,5.51
126.72,118.982,0.673,1.858,1.359,1.0,0.0055,31,113,29,1.82
177.15,119.6275,1.026,2.417,1.001,1.0,0.0048,23,96,291,7.6
155.86,121.2134,0.69,1.492,1.454,1.0,0.0059,10,53,215,6.24
72.84,121.4946,0.439,0.72,2.175,1.0,0.0043,10,148,1,1.83
112.95,121.7054,0.541,1.172,1.669,1.0,0.0058,0,213,59,2.84
127.53,122.6456,0.647,1.061,1.472,1.0,0.005,29,316,2,4.27
146.91,123.9424,0.52,0.75,2.058,1.0,0.0117,4,271,43,4.63
155.62,124.7249,0.491,1.069,2.251,1.0,0.0108,2,34,222,5.23
125.08,124.7954,0.599,1.252,1.546,1.0,0.0059,2,345,300,3.37
176.06,125.7672,1.012,2.164,0.94,1.0,0.0054,10,292,403,6.54
148.74,127.4252,0.444,0.698,2.39,1.0,0.0149,2,79,235,4.77
125.39,127.9908,0.464,0.647,2.247,1.0,0.0117,3,186,428,3.39
180.41,128.2131,0.569,1.187,2.097,1.0,0.0131,19,153,98,6.93
187.69,128.3975,0.56,1.56,1.709,1.0,0.0108,0,320,101,7.62
151.04,129.2788,1.416,3.107,0.647,1.0,0.0032,2,256,424,4.91
130.9,129.3177,1.021,1.99,0.901,1.0,0.0033,30,142,351,4.27
134.53,129.3438,0.562,0.859,1.929,1.0,0.0106,16,242,141,4.77
230.19,129.5133,1.105,2.172,1.019,1.0,0.0057,24,231,320,6.19
152.23,129.93,1.353,2.57,0.704,1.0,0.0033,25,226,208,5.26
173.08,131.7082,0.56,1.1,2.059,1.0,0.012,5,133,255,6.7
170.56,132.0856,0.61,1.017,1.772,1.0,0.0094,25,45,168,5.49
187.46,133.3042,0.665,1.632,2.138,1.0,0.0103,8,254,33,7.28
187.11,133.8626,2.164,4.76,0.432,1.0,0.0028,12,335,275,7.32
150.78,134.0467,0.714,1.444,1.415,1.0,0.0056,18,94,330,5.84
166.34,134.3703,0.53,0.734,2.665,1.0,0.0139,27,277,2,7.8
182.84,134.9968,2.004,4.387,0.49,1.0,0.0028,22,249,258,7.19
134.21,136.0547,0.497,0.858,2.001,1.0,0.0081,25,224,214,3.9
74.81,136.359,0.372,0.743,2.723,1.0,0.0054,31,43,102,0.9
172.34,136.8373,0.504,1.213,2.185,1.0,0.0121,22,137,302,7.07
143.57,137.9454,0.597,1.026,1.711,1.0,0.0075,6,197,289,4.56
204.99,138.0295,1.178,3.082,0.779,1.0,0.0051,21,169,93,7.76
80.99,139.1251,0.295,0.545,3.359,1.0,0.008,21,193,428,0.98
167.6,139.5476,0.727,1.382,1.341,1.0,0.0058,8,211,447,5.61
144.18,139.8389,0.718,1.39,1.315,1.0,0.0055,3,283,466,4.17
190.3,140.9381,0.598,1.292,1.752,1.0,0.0099,2,336,486,7.02
169.62,141.1512,1.282,2.588,0.753,1.0,0.0037,4,204,346,5.97
200.61,141.1957,1.106,2.696,0.89,1.0,0.0043,30,108,346,7.62
122.94,141.5076,0.403,0.774,2.399,1.0,0.0085,0,194,83,3.12
135.43,141.6806,0.444,0.683,2.452,1.0,0.0124,30,206,179,4.11
198.28,141.7356,0.798,1.782,1.153,1.0,0.0069,20,342,418,7.18
71.74,142.027,0.447,0.793,2.146,1.0,0.0038,26,257,478,0.7
167.99,142.274,1.546,3.688,0.599,1.0,0.0033,14,283,111,5.52
129.06,142.4616,0.804,1.357,1.182,1.0,0.0042,1,166,232,3.42
194.3,142.7174,0.605,0.936,1.887,1.0,0.0118,4,250,315,6.89
154.4,143.246,0.486,0.768,2.376,1.0,0.0146,12,194,81,5.33
109.75,143.7172,0.295,0.448,3.753,1.0,0.015,0,172,63,2.61
172.54,146.8416,0.634,1.261,1.682,1.0,0.0077,28,123,322,6.02
127.55,147.5765,0.433,0.622,2.534,1.0,0.014,25,143,85,3.74
202.18,149.3175,2.044,4.822,0.472,1.0,0.003,23,241,342,7.97
190.94,149.7615,1.08,2.404,0.834,1.0,0.0049,12,309,248,6.7
149.46,149.8815,0.468,0.712,2.326,1.0,0.0139,26,195,210,4.48
162.87,150.3982,0.518,0.866,2.149,1.0,0.0119,30,311,121,5.34
163.8,153.7076,0.751,1.367,1.353,1.0,0.0061,9,92,291,5.78
202.41,153.8308,0.739,1.61,1.51,1.0,0.0081,7,297,145,7.71
171.34,154.8799,0.557,0.801,2.303,1.0,0.0143,6,99,471,6.08
127.1,155.6729,0.59,1.015,1.699,1.0,0.0056,10,84,31,4.01
214.62,155.9884,0.706,1.612,1.62,1.0,0.0085,11,143,30,7.48
163.74,157.5121,0.527,1.076,1.866,1.0,0.0085,21,159,34,5.09
137.6,158.1699,0.614,1.375,1.524,1.0,0.0058,21,197,490,3.19
191.59,158.3464,0.521,1.04,2.163,1.0,0.0131,5,160,471,7.05
198.14,158.4627,0.53,1.187,2.122,1.0,0.0118,11,158,434,7.41
160.61,158.6858,0.573,1.236,1.664,1.0,0.0077,15,120,463,4.78
189.75,159.4894,0.529,1.06,2.126,1.0,0.0101,24,207,173,4.37
184.07,159.5807,0.67,1.392,1.471,1.0,0.0076,27,169,266,6.39
200.33,160.3075,0.551,1.095,2.067,1.0,0.0133,11,40,92,6.45
153.49,160.5345,0.495,0.74,2.277,1.0,0.0137,26,157,108,4.67
194.09,160.5922,0.522,1.095,2.21,1.0,0.014,22,347,78,7.52
199.72,160.7411,0.627,1.299,1.633,1.0,0.0096,27,346,113,7.09
195.17,160.7502,0.547,1.241,1.927,1.0,0.0117,0,194,453,6.67
151.65,161.1745,0.584,0.983,1.678,1.0,0.0071,23,125,367,4.31
159.12,161.9874,0.919,2.071,0.948,1.0,0.0044,0,348,115,3.32
178.5,163.1711,0.476,0.836,2.398,1.0,0.0149,3,158,314,5.99
182.2,164.5467,1.346,2.908,0.684,1.0,0.0033,2,240,33,5.65
208.71,164.7929,0.701,1.516,1.352,1.0,0.0082,14,192,249,6.75
184.17,165.4877,0.637,1.152,1.718,1.0,0.0075,30,57,172,5.52
125.85,165.5529,0.586,2.792,1.472,1.0,0.0054,31,154,328,1.05
157.13,167.4954,0.519,1.242,1.744,1.0,0.0078,15,253,263,3.93
210.08,169.5285,0.529,0.975,2.1,1.0,0.0149,12,187,258,7.39
188.73,169.6075,0.969,2.048,0.966,1.0,0.0046,12,174,130,6.25
192.33,170.4011,0.462,0.914,2.371,1.0,0.0149,12,202,479,6.72
164.45,171.4386,1.06,2.007,0.854,1.0,0.0037,28,315,51,4.61
188.18,171.7508,0.417,0.77,2.571,1.0,0.0144,9,343,95,5.73
170.69,171.8707,0.414,0.883,2.44,1.0,0.0123,0,162,180,5.42
191.89,172.3233,1.259,2.639,0.725,1.0,0.0034,2,248,13,5.34
82.47,172.6682,0.197,0.381,5.872,1.0,0.0127,9,337,354,0.74
198.93,173.0114,1.169,2.084,0.776,1.0,0.004,26,277,78,5.97
181.62,173.1271,0.595,1.159,1.841,1.0,0.01,16,308,55,6.26
141.08,173.9262,0.479,0.659,2.223,1.0,0.0134,5,112,87,3.79
155.94,174.3058,0.474,0.746,2.243,1.0,0.0103,4,273,163,4.01
221.59,174.5805,1.941,4.369,0.494,1.0,0.0034,9,334,345,7.97
152.05,175.1428,0.459,0.664,2.36,1.0,0.0143,1,121,213,4.15
142.27,175.2923,0.339,0.66,3.31,1.0,0.0148,0,201,345,3.69
189.49,176.9728,1.37,2.797,0.698,1.0,0.0035,20,261,444,5.79
121.11,177.4495,0.322,0.554,3.545,1.0,0.011,9,293,128,1.97
195.12,177.8005,0.823,1.772,1.225,1.0,0.006,22,195,343,6.58
194.15,178.1045,0.559,1.542,1.636,1.0,0.0091,14,295,116,6.21
187.41,178.2575,0.462,1.055,2.079,1.0,0.0117,21,284,198,5.53
136.29,180.3005,0.335,0.644,3.214,1.0,0.0133,15,220,369,3.04
162.72,180.8669,0.783,1.425,1.238,1.0,0.0046,8,257,424,4.64
218.97,181.0522,0.546,1.418,2.031,1.0,0.0121,15,247,45,7.9
182.97,181.5862,2.157,3.619,0.476,1.0,0.0015,8,161,159,4.97
186.72,184.0744,0.504,0.885,2.055,1.0,0.0121,20,273,404,5.36
161.86,184.1819,0.419,0.995,2.165,1.0,0.0096,11,275,147,3.96
189.7,184.5349,0.467,1.059,2.022,1.0,0.0109,0,266,353,5.2
112.23,185.5476,0.389,0.463,2.704,1.0,0.012,24,243,18,1.87
166.77,187.1014,1.284,2.469,0.75,1.0,0.0032,18,213,468,4.62
190.42,187.9932,1.493,3.281,0.659,1.0,0.0031,4,172,425,6.16
221.17,189.3182,0.482,0.963,2.233,1.0,0.0147,11,135,437,7.27
144.29,191.8555,0.577,0.932,1.736,1.0,0.0058,30,290,55,3.28
210.04,192.413,0.533,1.001,1.906,1.0,0.0113,29,290,47,6.5
198.88,192.4513,0.604,1.424,1.848,1.0,0.0081,29,134,300,6.88
211.71,192.57,0.535,1.342,1.937,1.0,0.0118,31,55,187,6.97
163.73,192.7161,1.257,2.34,0.769,1.0,0.0029,26,171,206,4.56
210.43,192.8569,0.564,0.951,2.164,1.0,0.0137,18,257,34,7.29
153.09,192.9101,0.497,0.709,2.16,1.0,0.0113,4,93,169,4.01
227.2,196.6383,0.642,1.387,1.941,1.0,0.0103,3,135,164,7.95
219.84,197.8397,0.957,2.233,1.035,1.0,0.0053,20,255,86,7.15
183.51,198.1546,0.944,2.036,1.173,1.0,0.0037,10,47,354,6.1
235.82,198.6391,1.281,3.134,0.812,1.0,0.0039,28,123,463,7.86
229.6,200.2293,1.36,3.391,0.692,1.0,0.0043,2,272,316,7.32
215.12,200.7987,0.472,1.091,2.706,1.0,0.0146,11,118,35,7.35
184.98,200.8376,0.637,1.403,1.58,1.0,0.0074,17,101,355,6.63
102.35,201.2475,0.385,0.916,2.408,1.0,0.0056,11,253,435,1.03
188.59,202.2901,0.714,1.342,1.442,1.0,0.0069,6,249,371,5.31
156.22,203.5217,0.503,0.791,2.101,1.0,0.0097,29,124,95,4.09
167.16,204.2751,1.035,2.161,0.856,1.0,0.0036,21,228,98,3.53
241.2,204.519,0.914,1.962,1.175,1.0,0.0057,24,246,324,5.17
205.65,204.9452,0.611,0.977,1.948,1.0,0.0103,29,72,308,5.65
211.84,204.9847,0.558,1.169,2.326,1.0,0.0135,23,96,309,7.63
180.23,204.9901,1.559,2.897,0.633,1.0,0.0022,16,252,267,5.54
187.09,205.1716,0.881,1.885,1.178,1.0,0.0045,19,217,355,5.96
147.87,205.3854,0.408,0.794,2.598,1.0,0.0092,11,176,246,3.34
153.04,206.0165,0.462,0.599,2.439,1.0,0.015,25,113,178,3.69
181.79,206.4087,0.626,1.194,1.648,1.0,0.007,3,201,53,5.24
234.28,206.4422,1.2,2.81,0.884,1.0,0.0047,2,169,254,7.64
224.06,206.8844,0.568,1.076,2.566,1.0,0.0147,29,281,27,7.36
207.82,207.1034,0.645,1.425,1.582,1.0,0.0074,16,296,190,6.88
139.45,209.2054,0.573,1.135,1.641,1.0,0.0052,0,194,120,2.49
168.95,209.8548,0.872,1.557,1.067,1.0,0.0043,25,264,209,3.59
178.86,211.3224,0.654,1.358,1.744,1.0,0.0061,6,42,350,5.74
178.39,211.7672,1.055,1.92,0.873,1.0,0.0037,25,210,134,4.46
214.99,213.1893,0.974,2.027,0.963,1.0,0.0052,23,246,235,6.21
198.12,213.2171,0.58,1.04,1.9,1.0,0.0095,25,146,327,5.7
163.64,214.9874,0.458,0.932,2.209,1.0,0.0087,15,163,142,4.04
144.8,215.5906,0.612,1.094,1.598,1.0,0.0053,5,121,396,3.54
204.75,215.8297,1.079,2.475,0.919,1.0,0.0034,21,34,126,5.45
203.77,219.3348,0.941,1.83,1.015,1.0,0.005,18,276,156,5.67
166.5,219.665,0.624,1.251,1.671,1.0,0.0062,23,97,468,4.57
75.9,220.2675,0.164,0.991,6.593,1.0,0.0133,31,179,429,0.0
149.68,221.42,0.382,0.615,2.792,1.0,0.0118,0,113,278,3.13
194.65,221.5369,0.444,0.919,2.174,1.0,0.011,14,281,339,4.64
191.53,221.8994,0.565,0.921,1.901,1.0,0.0097,29,167,195,5.04
227.22,223.2488,1.093,2.613,0.881,1.0,0.0046,15,101,112,6.73
228.9,226.1405,0.701,1.539,1.357,1.0,0.0071,26,257,136,6.98
240.24,227.3843,0.776,1.716,1.233,1.0,0.0071,26,338,401,7.05
154.61,228.1052,0.695,1.327,1.372,1.0,0.0046,21,111,280,3.21
179.0,228.2664,0.64,1.089,1.496,1.0,0.006,30,325,23,4.01
279.15,229.1705,1.254,3.853,1.211,1.0,0.0062,24,322,101,7.35
158.41,229.5276,0.578,0.981,1.846,1.0,0.0065,10,87,22,4.29
143.3,231.5598,0.376,0.548,2.899,1.0,0.011,11,112,3,3.01
228.54,233.8326,0.531,1.197,2.301,1.0,0.0132,3,156,258,7.57
195.11,234.1898,0.873,1.78,1.128,1.0,0.0048,27,129,408,5.24
220.08,234.5139,1.042,1.929,0.911,1.0,0.0047,23,233,121,5.85
212.97,234.8188,0.693,1.45,1.49,1.0,0.0069,3,234,83,6.25
195.97,235.3096,0.855,1.448,1.141,1.0,0.0051,6,278,111,4.48
195.87,239.9382,0.929,2.076,0.982,1.0,0.0046,0,210,486,4.11
219.87,241.5278,0.67,1.533,1.691,1.0,0.0075,20,149,433,6.81
230.29,242.8951,0.58,1.249,1.757,1.0,0.0098,1,183,203,6.99
209.7,246.3782,0.985,1.678,0.995,1.0,0.0046,18,249,76,5.29
244.33,246.7822,0.607,1.136,1.858,1.0,0.0101,21,118,356,6.94
222.77,247.1393,0.678,1.404,1.481,1.0,0.0079,6,240,274,6.49
257.04,247.6282,1.381,3.719,0.648,1.0,0.0044,0,231,127,7.23
222.77,251.0927,0.871,1.765,1.091,1.0,0.0057,12,259,160,5.8
212.8,251.1296,0.558,1.043,1.877,1.0,0.0102,23,167,189,5.81
209.03,252.0337,0.967,1.897,0.986,1.0,0.0041,5,230,92,5.46
137.12,252.2747,0.707,1.437,1.337,1.0,0.0037,9,280,405,1.21
208.59,252.6575,0.511,0.78,2.264,1.0,0.0144,25,122,375,5.27
265.04,253.0574,0.925,1.881,1.24,1.0,0.0057,24,235,157,5.08
184.04,254.8285,0.386,0.749,2.519,1.0,0.0116,14,270,44,3.93
174.95,255.3363,0.828,1.164,1.139,1.0,0.004,19,325,21,3.57
186.87,256.2477,0.392,0.81,2.732,1.0,0.0131,0,158,157,4.77
210.82,259.9993,0.795,1.517,1.296,1.0,0.0053,28,156,405,5.33
186.97,260.2677,1.234,2.514,0.744,1.0,0.0032,0,262,239,3.26
216.18,261.7938,0.492,1.244,2.513,1.0,0.0131,22,136,152,7.0
133.86,263.5269,0.428,0.547,2.472,1.0,0.0078,6,152,24,2.08
193.85,264.0403,0.664,1.302,1.511,1.0,0.0062,9,317,226,3.32
276.84,267.2696,0.697,1.51,1.749,1.0,0.0085,0,70,71,7.98
180.1,267.2878,0.491,0.779,2.217,1.0,0.0104,26,145,126,4.21
234.02,268.4611,0.551,1.025,2.444,1.0,0.0124,9,296,334,7.13
195.65,268.588,0.99,1.758,0.956,1.0,0.0038,27,191,31,4.48
194.87,268.893,0.485,1.231,1.866,1.0,0.0084,15,288,388,3.75
241.88,269.126,0.896,1.929,1.15,1.0,0.0058,1,175,199,6.86
259.16,271.1349,0.508,1.038,2.306,1.0,0.0143,11,84,340,7.58
195.27,272.5042,0.536,0.972,1.892,1.0,0.0084,30,298,113,4.45
229.49,273.1856,0.587,1.186,1.808,1.0,0.0091,26,191,135,6.35
242.21,273.3058,0.593,1.255,1.747,1.0,0.0086,30,277,61,6.94
237.31,273.9317,0.798,1.686,1.203,1.0,0.0064,22,302,200,6.23
141.9,277.3732,0.439,0.958,2.178,1.0,0.006,11,227,101,1.93
226.05,277.3978,0.826,1.741,1.211,1.0,0.0058,25,328,334,5.48
263.84,277.6814,1.01,2.402,1.019,1.0,0.0056,28,324,394,7.55
238.11,278.5031,0.702,1.654,1.476,1.0,0.0068,11,90,70,6.54
164.74,278.6494,0.538,0.815,1.915,1.0,0.0069,1,107,108,3.43
247.44,281.169,0.645,1.25,1.862,1.0,0.0094,9,288,81,7.17
184.91,281.2396,0.377,0.795,2.945,1.0,0.0138,15,127,192,4.71
237.32,281.3752,2.013,4.064,0.492,1.0,0.0024,20,243,164,6.26
192.47,283.1319,0.888,1.929,1.014,1.0,0.0041,0,248,63,3.45
221.86,284.3207,0.513,0.858,2.421,1.0,0.014,26,119,382,5.8
203.56,284.797,0.654,1.238,1.53,1.0,0.0062,3,266,198,4.73
251.42,286.1174,0.562,1.124,2.059,1.0,0.0107,2,171,477,6.84
227.3,288.3878,0.947,1.925,1.039,1.0,0.0045,4,158,220,5.75
227.96,291.3445,0.464,0.992,2.371,1.0,0.0129,11,110,404,6.0
217.37,292.4414,0.717,1.321,1.364,1.0,0.0058,4,161,164,5.23
224.39,293.3767,0.505,1.068,1.856,1.0,0.0089,0,161,264,5.16
195.74,295.745,0.713,1.269,1.462,1.0,0.0048,22,85,78,4.62
217.61,295.8227,0.629,1.443,1.359,1.0,0.0062,15,295,226,3.84
206.2,296.6601,0.61,0.902,1.935,1.0,0.0107,19,160,163,4.92
197.55,296.7021,0.717,1.662,1.23,1.0,0.0052,0,272,407,3.11
267.0,297.0102,1.354,3.111,0.707,1.0,0.0041,27,295,121,7.26
262.08,298.687,1.155,2.122,0.863,1.0,0.0045,9,167,157,7.3
247.69,302.3242,0.533,1.073,2.135,1.0,0.0129,27,157,162,6.84
269.34,305.7247,0.568,1.288,1.967,1.0,0.0114,25,289,322,7.9
222.23,306.95,0.848,1.714,1.157,1.0,0.005,29,239,316,5.14
231.36,309.0568,0.565,0.85,2.061,1.0,0.0113,1,114,423,5.37
254.62,310.7782,1.049,2.38,0.985,1.0,0.0046,20,193,303,6.66
267.77,310.787,0.906,2.302,1.155,1.0,0.0055,3,156,292,7.45
235.29,312.0424,0.513,1.147,1.913,1.0,0.0093,0,190,81,5.67
253.48,312.453,0.557,1.119,2.289,1.0,0.0116,28,227,51,6.93
216.12,318.1039,0.516,0.954,2.013,1.0,0.0086,11,77,112,4.92
240.4,324.7327,0.528,0.851,2.03,1.0,0.011,22,310,357,5.0
266.02,324.8751,1.033,2.767,1.006,1.0,0.0047,23,114,212,7.5
254.46,328.9725,0.517,1.146,2.05,1.0,0.0112,27,286,207,6.75
225.79,331.8399,0.584,1.224,1.668,1.0,0.0073,31,28,245,4.92
291.48,338.2776,0.881,2.117,1.23,1.0,0.0065,24,291,184,5.26
256.06,339.0211,0.503,0.963,2.278,1.0,0.0134,26,284,288,6.53
169.46,339.0358,0.34,0.698,2.836,1.0,0.0094,21,323,467,1.76
262.65,339.3929,0.7,1.542,1.433,1.0,0.0075,25,281,383,6.22
243.08,341.6705,0.585,1.02,1.964,1.0,0.0095,3,201,58,5.74
274.69,342.8748,0.573,1.385,1.964,1.0,0.0108,1,136,354,7.93
257.88,343.2297,0.575,0.994,2.063,1.0,0.0111,4,301,492,6.05
172.88,352.2955,0.515,1.061,1.858,1.0,0.0057,0,266,33,2.08
233.91,354.271,0.518,0.898,2.182,1.0,0.0106,3,224,492,5.05
234.98,354.9038,0.521,0.936,2.206,1.0,0.011,28,238,146,5.41
247.83,355.4671,0.73,1.719,1.558,1.0,0.0061,29,155,321,6.43
151.06,355.9189,0.265,1.675,4.525,1.0,0.0116,31,338,11,0.51
289.21,362.0422,1.197,2.894,0.889,1.0,0.0039,22,107,172,6.95
152.85,362.6854,0.33,0.632,3.018,1.0,0.0085,2,339,11,2.04
227.77,363.442,0.618,1.345,1.674,1.0,0.0061,3,109,89,5.09
273.6,368.671,0.59,1.173,1.823,1.0,0.0086,11,36,272,6.01
260.86,371.8979,0.934,1.895,1.057,1.0,0.0047,28,249,79,5.88
193.16,379.8961,0.535,0.792,1.97,1.0,0.0072,27,105,26,3.63
262.85,380.2188,1.275,2.818,0.774,1.0,0.0033,14,83,123,5.59
261.98,388.1479,0.754,1.496,1.362,1.0,0.0063,26,262,441,5.56
243.15,390.005,0.508,0.895,2.19,1.0,0.0104,20,229,391,5.03
250.79,396.3592,0.512,0.972,2.106,1.0,0.0098,11,102,337,5.16
249.48,399.6059,0.545,1.058,2.325,1.0,0.0114,10,114,105,6.39
288.41,405.197,0.493,1.147,2.391,1.0,0.0145,2,112,131,7.07
248.56,405.6004,0.782,1.323,1.409,1.0,0.0058,19,298,129,5.42
307.82,406.5621,0.953,2.148,1.08,1.0,0.0058,27,281,68,7.48
265.19,407.2024,0.642,1.126,2.247,1.0,0.0105,16,229,89,6.6
261.34,413.4173,0.467,0.969,2.463,1.0,0.0137,21,109,148,6.08
279.06,415.6349,0.547,0.97,1.977,1.0,0.0103,2,140,256,5.73
284.73,424.1181,0.627,1.265,1.61,1.0,0.0083,26,295,235,6.09
284.43,438.4384,0.638,1.123,1.822,1.0,0.01,13,200,108,6.03
271.58,442.2302,0.506,0.85,2.412,1.0,0.0144,27,218,277,5.71
291.07,445.8453,1.052,2.125,1.019,1.0,0.0044,1,115,367,6.36
246.24,448.4599,0.474,1.14,2.012,1.0,0.0088,11,290,335,3.81
209.9,450.0693,0.588,0.982,1.796,1.0,0.0058,30,135,114,3.77
194.99,453.9505,0.553,1.075,1.788,1.0,0.0053,21,198,82,2.4
290.14,454.8912,0.689,1.55,1.393,1.0,0.0068,2,271,130,5.94
219.34,459.8518,0.416,0.727,2.746,1.0,0.0115,2,207,249,3.75
265.5,475.9752,0.758,1.589,1.312,1.0,0.0055,0,146,82,4.8
256.9,476.3202,0.489,0.895,2.52,1.0,0.0138,3,181,132,5.41
242.71,480.9127,0.512,0.768,2.42,1.0,0.014,27,105,92,4.69
305.07,487.1526,0.569,1.152,2.081,1.0,0.0103,29,315,295,6.89
284.99,500.7341,0.535,1.14,2.36,1.0,0.0121,25,133,253,6.56
287.14,507.5312,0.913,2.113,1.029,1.0,0.0048,21,219,91,5.01
289.2,508.5677,0.488,0.926,2.211,1.0,0.012,0,84,276,5.46
308.01,511.4114,0.946,2.215,1.108,1.0,0.0053,14,146,463,6.04
249.24,515.2517,0.543,1.086,1.84,1.0,0.007,0,130,18,4.19
227.77,518.7505,0.548,0.883,1.977,1.0,0.0077,5,89,162,3.85
299.91,528.5835,0.509,1.026,2.32,1.0,0.0114,0,57,384,6.06
262.63,545.4715,0.422,0.893,2.542,1.0,0.0114,2,276,198,4.69
294.49,551.6791,0.509,1.012,2.428,1.0,0.0139,4,153,150,6.28
245.35,569.0453,0.467,0.859,2.257,1.0,0.0083,31,24,170,4.03
263.31,569.761,0.453,0.759,2.498,1.0,0.0112,28,339,110,4.26
326.98,571.939,0.533,0.862,2.253,1.0,0.0143,25,285,376,5.92
266.52,613.7489,0.703,1.212,1.497,1.0,0.0055,18,143,129,4.5
320.2,628.4282,0.575,1.34,1.791,1.0,0.0083,2,254,247,5.88
336.82,652.2191,0.583,1.189,2.36,1.0,0.0127,27,139,277,7.23
311.74,654.7327,0.935,1.919,1.18,1.0,0.004,16,240,412,6.0
343.27,699.5263,0.9,1.822,1.133,1.0,0.005,3,230,109,5.74
318.46,723.3686,0.987,1.868,1.058,1.0,0.0038,27,91,216,5.05
286.07,822.5673,0.718,1.307,1.532,1.0,0.0049,18,115,119,4.48
351.45,842.0502,1.171,2.571,0.826,1.0,0.0037,31,37,114,5.03
